Taxon	C12FCHL	C12FCHS	C13FJBL	C13FJBS	C14FJOS	C14FJOL	C15FNSL	C15FNSS	C15FTCL	C15FTCS	C16FHWL	C16FHWS	C17FHEL	C17FHES	C18FCLL	C18FCLS	C18FHHL	C18FHHS	C18FTGL	C18FTGS	C19FTTL	C19FTTS	C20FJAL	C20FJAS	C20FPHL	C20PHS	C2F1L	C2F1S	C2F4F1	C2F4F2	C2F4F3	C2F4L1	C2F4L2	C2F4L3	C2F4S1	C2F4S2	C2F4S3	C3F10L	C3F10S	C3F14L	C3F14S	C4F17F1	C4F17F2	C4F17F3	C4F17L1	C4F17L2	C4F17L3	C4F17S1	C4F17S2	C4F17S3	C4F8L	C4F8PC	C4F8PP	C4F8S	C6F35L	C6F35S	C6F37L	C6F37S	C6F60L	C6F60S	C7F14L	C7F14S	C7F22L	C7F22S	C7F81L	C7F81S	C8F40F1	C8F40F2	C8F40F3	C8F40L1	C8F40L2	C8F40L3	C8F40S1	C8F40S2	C8F40S3
UNCLASSIFIED	89.04096	91.91969	88.27852	91.77694	86.58221	61.77197	83.31019	95.24549	74.03786	93.14912	83.55058	91.32328	88.29569	94.13665	86.70531	92.8536	90.54865	89.29246	84.04916	89.61611	84.1833	95.01474	89.70063	97.50966	77.27914	96.19367	91.76733	96.70355	86.00804	83.67978	86.02409	88.55979	87.34443	87.54984	88.19037	91.42323	90.77945	83.96702	88.96101	75.20185	82.64292	49.45822	43.41522	51.83386	75.92636	76.33222	74.77027	95.00246	95.01008	94.88388	73.95327	51.09711	92.066	97.82616	87.32238	80.09098	70.83069	87.2386	89.44148	76.32274	74.55917	90.85756	78.85093	83.48122	84.83525	93.49672	59.85956	40.64526	29.26614	80.9362	80.31184	80.72254	85.87612	82.54977	86.75064
SGB29722	1.21488	0.1722	0.11204	0	0	0.00366	0.63127	0	0.98667	0	0.2377	0.00052	0.16293	0	0.02348	0	0.05647	0	0.23282	0.00295	0.13768	0	0.03951	0	0.06804	0	0.14347	0.00444	0	0	0	1.64369	1.69581	1.88223	0.26148	0.4704	0.50987	0.66496	0.01646	0.15956	0	0	0	0	0.50728	0.42172	0.47006	0.00235	0.00139	0.00286	0.00338	0	0	0	0.1231	0.15976	0.00175	0	0.08569	0.00775	0.00526	0	0.02596	0	0.02585	0	0	0	0	0.08431	0.08075	0.08123	0.0117	0.0093	0.00891
SGB17128	0.76227	0.12576	1.05079	0.00237	0	2.13244	0.4911	0	1.3011	0	0.8766	0.00843	0.79118	0.01292	1.55449	0.01376	0.79536	0.00021	1.33502	0.06336	1.30582	0.00145	1.38718	0.0444	1.40387	0.08302	0.16284	0.03401	0	0	0	2.3341	2.47398	2.52751	0.83097	0.59287	0.8609	0.68209	0.02009	1.08371	0	0	0	0	2.865	2.94218	2.56964	0	0	0	1.514	0	0.00045	0.00878	0.90428	0.89529	3.18229	0.00776	1.0129	0.08765	0.58154	0.01488	3.87944	0.1544	0.72106	0	0.11738	0.02016	0.01262	0.71786	0.90651	0.85771	0.36088	0.55913	0.41945
SGB7082	0.55398	0.06021	0.1743	0	0	0.91701	0.3739	0	0.53364	0	0.84121	0.00358	0.5306	0.00457	1.06409	0.00105	0.63101	0	1.23146	0.11221	1.23694	0	0.58418	0.03827	1.20061	0	0.00591	0	0	0	0	0.02338	0.03847	0.05485	0.30908	0.05149	0.03679	0.33054	0.00675	0.32296	0	0	0	0	0.6596	0.82147	1.02017	0	0	0	1.3536	0	0.03925	0.00075	1.1076	0.25639	1.18762	0.0112	0.96375	0.12876	1.32419	0.0063	1.06614	0.0129	1.22725	0	0	0	0	2.0057	2.03968	1.93464	1.76968	1.26111	0.87185
SGB34117	0.53987	4.00E-05	0.75146	0.00029	0	1.10349	0.04401	0	0.6666	0	0.11365	0.00123	0.01272	0	0.01331	0	0.35519	0	0	0.00058	0	0	0.00301	0	0	0	0.37293	0.04217	0	0	0	0.98505	1.02779	0.87573	0.17559	0.34846	0.32683	0.08275	0.02466	0.04654	0	0	0	0	0.43906	0.45661	0.42472	0.00016	0	0	0.45363	0	0	0.00069	0.00655	0.01784	0.00969	0	0.00744	0	0	0	0.00089	0	0.02567	0	0	0	0	0	0	0	0	0	0
SGB34195	0.48704	0.04852	2.48146	0.00438	7.00E-05	0.11262	1.10561	0	1.05317	0	0.33519	0.00587	0.75004	0.00271	0.2452	0.0015	0.96312	0.00044	0.00873	0.00059	0.02636	0	0.46317	0	0.03162	0	3.96026	0.00987	0	0	0	1.08535	1.02228	0.88045	0.09313	0.27629	0.21474	3.76912	0.07649	1.80339	0.00077	0	0	0	1.96807	1.87574	1.64895	0.56482	0.4998	0.53678	0.07806	0	0	0	0.19085	0.12922	0.16417	0	0.44874	0.0085	0.01804	0	0.07737	0.00161	0.19025	0	0	0	0	0.01182	0.0215	0.02732	0.02176	0.02828	0.0249
SGB7047	0.48089	0.11756	0.21392	0	0	0.64651	0.14286	0	0.24767	0	0.33562	9.00E-05	0.04794	0.00178	0.07344	0	0.08324	0	0.25718	0.00119	0.05421	0	0.09797	0	0.11062	0	0.00629	0	0	0	0	0.04729	0.05685	0.09751	0.03096	0.01744	0.01175	0.16763	0	0.16455	0	0	0	0	0.50474	0.6145	0.58906	0	0	0	0.65161	0	0	0	0.05542	0.06128	0.06284	0	0.07294	0	0.12691	0	0.07339	0	0.04747	0	0	0	0	0.144	0.10702	0.08012	0.11472	0.0816	0.02551
SGB2722	0.45941	0	0.58548	0	0	0.00043	0	0	0.00368	0	0	0	0.05003	0	0.00038	0	0.00048	0	0	0	0	0	9.00E-05	0	0	0	0.07394	0	0	0	0.00117	0.04209	0.07142	0.03495	0	4.00E-05	0.00047	0.04635	0.01051	0.01261	0	0	0	0	2.15741	3.22	2.16485	0.0436	0.0497	0.0632	5.60383	0	0	0	2.00E-05	0	0.00156	0	0.0031	0	0	0	0	0	0	0	0	0	0	0	0	0	0.00091	0.00294	0.07872
SGB7806	0.41301	0.11452	0.11835	0	0	0.00737	0.14053	0	0.10843	0	0.69592	0.00198	0.1165	0	0.08535	0	0.13586	0	0.14594	0.01177	0.18884	0	0.06403	0	0.10803	0	0.01249	0	0	0	0	0.09465	0.07945	0.08808	0.01314	0.01103	0.01396	0.00918	0.00282	0	0	0	0	0	0	0	0	0	0	0	0	0	0	0	0.24867	0.25327	0.04622	0	0.16022	0.01902	0.05857	0	0.20622	0.00851	0.16203	0	0	0	0	0.26615	0.22668	0.29424	0.13707	0.19021	0.12751
SGB7805	0.39478	0.00049	0.16472	0	0	0.03662	0.01415	0	0.09049	0	0.01201	0	0	0	3.00E-05	0	0.00017	0	0.00027	0	3.00E-05	0	3.00E-05	0	0	0	0.1001	0.00714	0	0	0	0.69336	0.77331	0.71995	0.23022	0.21954	0.31143	0.02459	0	0.03904	0	0	0	0	0.01239	0.01218	0.01978	0	0	0	0.00176	0	0	0	0.00027	0.0005	0	0	0.00034	0	1.00E-05	0	0.0002	0	0.00017	0	0	0	0	0	4.00E-05	0.00028	0.00036	0	0
SGB24958	0.39413	0.05116	0.18176	0	0	1.8441	0.07765	0	0.8323	0	0.6378	0.00069	0.2309	0	0.26346	0	0.06817	0	0.01991	0	0.26798	0	0.0843	0	0.20182	0	0.01258	0.0013	0	0	0	0.08994	0.1619	0.13905	0.22348	0.14218	0.17393	0.18151	0.00325	0.35439	0	0	0	0	1.88287	1.23826	1.69627	0	0	0	0.58847	0	0	0	0.07639	0.09306	0.06309	0	0.09884	0	0.05598	0	0.56286	0.00628	0.04758	0	0.2235	0	0.00769	0.12204	0.16048	0.12434	0.01595	0.0053	0.01543
SGB7045	0.37753	0.06413	0.14506	0	0	0.41534	0.13725	0	0.26043	0	0.35995	0.00031	0.50381	0.00309	0.96578	0	0.38997	0	1.02051	0.00345	1.04745	0	0.48726	0	1.57143	0	0.00647	0	0	0	0	0.00549	0.00659	0.01567	0.04507	0	0	0.10291	0	0.13727	0	0	0	0	0.303	0.34567	0.44536	0	0	0	0.33305	0	0.06671	0	0.67509	0.20377	1.06197	0.0007	0.48825	0.00641	0.91418	0.00192	1.07889	0.00202	0.78356	0	0	0	0	1.53546	1.37481	1.47684	1.04044	0.77491	0.7284
SGB7041	0.35147	0.05437	0.3027	0	0	0.41154	0.24211	0	0.28618	0	0.42025	0.00042	0.45508	0.00107	0.45823	0	0.37765	0	0.52946	0.00349	0.45339	0	0.28707	0	0.64094	0	0.00793	0	0	0	0	0.01859	0.04961	0.06314	0.20481	0.04906	0.06265	0.17666	0.00287	0.1736	0	0	0	0	0.36802	0.37264	0.45527	0	0	0	0.28212	0	0.00022	0	0.38236	0.12063	0.44321	0	0.39958	0.00488	0.62793	0	0.53399	0	0.36934	0	0	0	0	0.78367	0.84968	0.69292	0.47507	0.33635	0.33155
SGB87943	0.34791	0.0082	0.48167	0	0	0.06124	0.08791	0	0.08969	0	0.00472	0.00279	0.05423	0	0.00085	0	0.01264	0	0	0	0	0	0.00254	0	0.00096	0	1.03284	0.00878	0	0	0	0.5553	0.7068	0.58743	0.0687	0.14821	0.10669	0.74248	0.04326	0.90482	0	0	0	0	0.30006	0.29502	0.1893	0.00948	0.01199	0.01927	0.10722	0	0	0	0.00102	0.05197	0.03425	0	0.00814	0	0	0	0.00571	0	0.00084	0	0	0	0	0	0	0	0.01882	0.00997	0.00437
SGB34200	0.32564	0.03271	0.14514	0	0	3.59509	0.30148	0	1.48081	0.0025	0.27509	0.00154	0.00982	0.0004	0.00386	0	0.00312	0	0	0.00379	0	0	0.00478	0.00389	0.00133	0	0.38998	0.0185	0	0	0	0.3168	0.28269	0.26908	0.35554	0.37864	0.30639	0.83331	0.05219	2.85081	0.00108	0	0	0	2.12269	1.71633	2.00272	0.0005	0	0.00121	2.89918	0	0	0.00547	8.00E-05	0.74783	0.07517	0	0.00252	0.00709	0	0	0.00063	0.01147	5.00E-05	0	0	0	0	0	0	0	0.07134	0.14243	0.12702
SGB7843	0.18626	0.00125	0.03712	0	0	2.10365	0.0357	0	0.24823	0	0.23017	0.00163	0	0	0	0	0	0	0	0	0	0	0	0	0	0	0	0	0	0	0	0	0	0	0	0	0	0.01482	0.0217	0.01861	0	0	0	0	0.21772	0.19013	0.33169	0	0	0	0.00895	0	0	0	0	0.14382	0.01435	0	0.00253	0	0.01163	0	0.00181	0	0.00057	0	0.05636	0	0	0	0	0	0.00747	0.00449	0.01134
SGB16651	0.18585	0.00551	0.38536	0.00023	0	1.38174	7.03193	0.0009	8.15968	0.00255	2.6045	0.0066	1.09227	0.01062	0.93485	0.00506	0.21816	0.00227	0.1595	0.03384	0.48728	0	0.58781	0.05317	0.41862	0.00039	0.11037	0	0	0	0	0.02227	0.02275	0.01836	0.00105	0.00176	0.00101	3.1798	0.14563	10.72085	0.00899	0	0	0	1.90696	1.02878	1.68488	0.00152	0.0008	0.00269	0.04101	0	0	0	1.25289	2.73818	3.63528	0.01214	0.63303	0.21143	0.14653	0	1.48648	0.202	0.17867	0	0.02701	0	0	0.16673	0.38523	0.30124	0.44523	0.31647	0.34422
SGB7798	0.15634	0.01265	0.04916	0	0	0.00527	0.82969	0	1.06857	0	0.69931	0.00119	0	0	0	0	0	0	0	0	0	0	0	0	0	0	0.04474	0	0	0	0	0.35139	0.2781	0.31721	0.2444	0.29373	0.36322	0.60835	0.0006	0.48339	0	0	0	0	1.49094	1.25685	1.36743	0	0	0	0.30778	0	0	0	0	0	0	0	0	0	0	0	0	0	0	0	0	0	0	0	0	0	0	0	0
SGB87969	0.14802	0.0267	0.00846	0	0	0	0.00039	0	0.00013	0	0	0.0004	0.17215	0	0.00474	0	0.00183	0	0.01675	0	0.3267	0	0.01719	0	0.11602	0	0	0	0	0	0	0	0	0	0	0	0	0	0.0078	0	0	0	0	0	0	0	0	0	0	0	0	0	0	0	0.0886	0.08719	0.00254	0	0.06841	0	0.00231	0	0.00176	0	0.08817	0	0	0	0	0.01098	0.01542	0.0157	0.00192	0	0.00095
SGB66231	0.14387	0.00259	0.02281	0.002	0	0.23732	0.00048	0	0.04405	0	0.0009	0.01473	0	0	0	0	0.00038	0.00104	0	0	0	0	0.00099	0	0	0	0.04351	0.01491	0.00037	0.00113	0	0.10529	0.14486	0.12816	0.06004	0.07895	0.08774	0.02576	0.00397	0.07623	0	0	0	0	0.22044	0.22326	0.20643	0	0	0	0.6657	0	0	0.00417	0	2.00E-05	0.00362	0	0	0	0	0	0	3.00E-05	0	0	0	0	0	0	0	0	0	0	0
SGB7817	0.1432	0.04318	0.50876	0	0	3.86777	0.62557	0	1.20041	0	1.20533	0.00068	0.22528	0.00014	0.38706	0	0.23942	0	0.64029	0.02445	0.79921	0	0.47969	0	0.52472	0	0.08801	0	0	0	0	0.05295	0.03826	0.04425	0.19905	0.03229	0.03288	0.22639	0.03061	0.45694	0	0	0	0	0.87553	0.72841	1.09463	0	0	0	0.12511	0	0	0.00471	0.87224	1.08642	1.97127	0.00436	0.86749	0.02527	0.37299	0.00019	1.04336	0.01948	0.8852	0	0.02601	0	0.00752	1.70604	1.62204	1.71381	0.87528	1.61091	0.89321
SGB16636_group	0.1332	0.01085	0.04634	0	0	1.92582	0.03301	0	0.38549	0	0.06116	0.00383	0.00171	0	0.00652	0	0.00052	0	0	0.00184	0	0	0.00035	0	0	0	0.01022	0.00453	0	0	0	0.02669	0.03525	0.03344	0.02289	0.02086	0.02452	0.07007	0.10894	0.41723	0	0	0	0	0.38973	0.34586	0.3643	0	0	0	0.71691	0	0	0	0	0.00231	0.01293	0	0.00015	0.0014	0	0	0.00012	0	0	0	0	0	0	0	0	0	0.01107	0.04123	0.0403
SGB7961	0.12891	0.01732	0.10628	0	0	0.30819	0.25809	0	0.31761	0	0.41751	0.00258	0.05863	0	0.09597	0	0.0249	0	0.17577	0	0.10912	0	0.1027	0	0.10918	0	0.00734	0	0	0	0	0.07233	0.13879	0.12297	0.20256	0.07302	0.09819	0.39448	0.0043	0.54785	0	0	0	0	0.75414	0.7528	0.95886	0	0	0	0.97998	0	0.00463	0	0.1365	0.04307	0.01656	0	0.16724	0.00184	0.11999	0	0.12861	0	0.12514	0	0	0	0	0.311	0.40054	0.35542	0.31912	0.06105	0.06204
SGB7095	0.12011	0.03342	0.08341	0	0	0.11489	0.03085	0	0.03593	0	0.06259	0	0.11127	0.00153	0.12322	0	0.07489	0	0.17113	0.04431	0.14385	0	0.09343	0	0.21329	0	0	0	0	0	0	0.01836	0.02652	0.0279	0.07269	0.02177	0.02129	0.03066	0.007	0.0285	0	0	0	0	0.08554	0.10744	0.10943	0	0	0	0.19603	0	0.00017	0	0.07021	0.05452	0.4015	0.00084	0.05074	0.00845	0.16394	0	0.17885	0.00064	0.09041	0	0	0	0	0.24103	0.24937	0.18887	0.17186	0.14127	0.13436
SGB25051	0.11962	0.03219	0.0855	0	0	0.08737	0.07383	0	0.13141	0	0.13893	0.00137	0.03906	0.00089	0.11678	0	0.04924	0	0.05369	0.00025	0.03257	0	0.09878	0	0.0525	0	0.02806	0	0	0	0	0.69822	0.90478	0.90221	0.65746	0.14551	0.23926	0.16295	0.00022	0.15912	0	0	0	0	0.4496	0.51931	0.40704	0	0	0	0.03423	0	0	0	0.05261	0.61369	0.09031	0	0.07085	0.02452	0.01362	0	0.33866	0.03343	0.02783	0	0.00422	0	0	0.06997	0.04941	0.05399	0.02513	0.05062	0.07121
SGB29715	0.10731	0.03322	0.01741	0	0	0.00113	0.01567	0	0.01365	0	0.10824	0	0.00935	0	0.00611	0	0.01782	0	0.01204	0.00023	0.0255	0	0.00406	0	0.01074	0	0.00152	0	0	0	0	0.00309	0.00272	0.00262	0	0	0	0.00041	0	0	0	0	0	0	0	0	0	0	0	0	0	0	0	0	0.02061	0.01683	0.00213	0	0.01317	0	0.00195	0	0.00778	0	0.013	0	0	0	0	0.01642	0.01471	0.01942	0.00543	0.00444	0.00331
SGB16655	0.10386	0	0.03179	0	0	0.002	0.00038	0	0.00053	0	0.00085	0	0	0	0.00113	0	0	0	0	0	0	0	0	0	0	0	0.00696	0.00132	0	0	0	0.01613	0.01638	0.01033	0.01994	0.00889	0.00692	1.00E-05	0.01925	2.00E-05	0	0	0	0	0.00011	0	0.00011	0	0	0	0.00029	0	0	0	0	0.0015	0.01828	0	0	0	0	0	0	0	0	0	0	0	0	0	0	0	0	0	0
SGB10068	0.09324	0.01119	0.10655	0	0	0.44035	0.04056	0	0.08777	0	0.07679	0.00115	0.13439	0	0.28094	0	0.0738	0	0.1561	0	0.18289	0	0.05821	0	0.20193	0	0	0	0	0	0	0	0	0	0.00251	0	0	0.01662	0	0.0822	0	0.75724	1.45809	1.52618	0.06572	0.06456	0.10311	0	0	0	0.14737	0	0	0	0.35361	0.03906	0.0797	0	0.31513	0	0.12951	0	0.15287	0	0.26822	0	0.11683	6.65742	10.00115	0.1759	0.24981	0.37198	0.04492	0.03078	0.07766
SGB7670	0.09208	0.00813	0.07669	0	0	0.00151	0	0	0	0	0.002	0	0	0	0	0	0	0	0	0	0	0	0	0	0	0	0.25158	0.01181	0	0.00046	0.00058	0.58443	0.54807	0.67537	0.09626	0.09146	0.07171	0.00105	0.00407	0	0	0	0	0	0.01828	0.0243	0.02264	0.0488	0.03794	0.03663	0.0697	0	0	0.0047	0	0	0	0	0	0	0	0	0	0	0	0	0	0	0	0	0	0	0	0	0
SGB8017	0.09065	0.01886	0.13029	0	0	0.28927	0.24112	0	0.38544	0	0.49504	0.00363	0.19837	0.00418	0.29253	0	0.0675	0	0.4195	0.01091	0.6186	0	0.10102	0	0.42911	0	0.03075	0	0	0	0	0.03821	0.04408	0.05527	0.36026	0.0494	0.06182	0.5815	0.01104	0.8282	0.00065	0	0	0	0.8031	0.92831	1.35723	0	0	0.00082	1.72701	0	0.05091	0	0.56884	0.07706	0.02514	0.00824	0.38432	0.02731	0.3902	0	0.4604	0.00209	0.52495	0	0.00953	0.0137	0.00719	0.68972	0.95029	0.69731	0.26538	0.2798	0.24085
SGB7081	0.07732	0.00423	0.0402	0	0	0.16563	0.09856	0	0.11937	0	0.19693	0.00015	0.05502	0	0.07001	0	0.01559	0	0.08146	0.00013	0.11705	0	0.06807	0	0.08459	0	0	0	0	0	0	0	0	0	0.01939	0	0	0.02294	0	0.05393	0	0	0	0	0.08426	0.09963	0.19251	0	0	0	0.1392	0	0	0	0.24744	0.02047	0	0	0.09441	0	0.15987	0	0.23783	0	0.26597	0	0	0	0	0.33907	0.57079	0.4302	0.32716	0.16279	0.05463
SGB7098	0.07561	0.01363	0.03748	0	0	0.19631	0.03407	0	0.06074	0	0.10096	0	0.03808	0	0.05366	0	0.04103	0	0.07355	0	0.07317	0	0.04442	0	0.08214	0	0	0	0	0	0	0.03081	0.04756	0.08461	0.07794	0.03301	0.04808	0.03859	0.00726	0.03511	0	0	0	0	0.10302	0.16495	0.13624	0	0	0	0.17244	0	0	0	0.01648	0.01531	0.08844	0	0.02426	0	0.06766	0	0.07367	0	0.01609	0	0	0	0	0.04945	0.08036	0.04176	0.02817	0.01368	0.01388
SGB11852	0.06856	0	0.1106	0	0	0	0	0	0	0	0	0	0	0	0	0	0	0	0	0	0	0	0	0	0	0	0.00056	0	0	0	0	0	0	0	0	0	0	0	0	0	0	0	0	0	0	0	0	0	0	0	0	0	0	0	0	0	0	0	0	0	0	0	0	0	0	0	0	0	0	0	0	0	0	0	0
SGB33387	0.06705	0.00759	0.01249	0	0	0.00768	0.60482	0	0.88358	0	0.19576	0.00156	3.00E-05	0	0	0	0.00071	0	5.00E-05	0	0	0	0.00016	0	0	0	0.0182	0	0	0	0	0.33339	0.25405	0.30958	0.01491	0.03651	0.03192	0.45138	0.0048	0.23586	0	0	0	0	0.15578	0.11355	0.13666	0	0.0004	0.00075	0.0017	0	0	0	5.00E-05	0.01144	0	0	0.00023	0	0	0	0.00038	0	4.00E-05	0	0	0	0	0	0	0	0	0	0
SGB7105	0.05711	0.00582	0.01894	0	0	0.10556	0.05177	0	0.10547	0	0.07912	0	0.00559	0	0.01936	0	0.0054	0	0.02971	0	0.00991	0	0.00786	0	0.0318	0	0	0	0	0	0	0.00015	0.00149	0.00025	0.03593	0.00378	0.00032	0.0132	0	0.02749	0	0	0	0	0.0247	0.03921	0.04619	0	0	0	0.04818	0	0	0	0.02377	0.00926	0.00226	0	0.00852	0	0.04643	0	0.01377	0	0.02321	0	0	0	0	0.01615	0.0391	0.02205	0.00344	0.00057	0.00399
SGB7967	0.04825	0.00308	0.02922	0	0	0.04522	0.0594	0	0.03533	0	0.09116	0.00016	0.00443	0.00523	0.00682	0	0.01831	0	0.01393	0.0043	0.01419	0	0.01922	0.00993	0.04814	0.00028	0.00325	0.00988	0	0.0137	0.00694	0.09166	0.12536	0.12849	0.22994	0.04927	0.08949	0.09449	0.00095	0.05126	0	3.20229	2.58534	2.05978	0.10197	0.10965	0.14641	0	0	0	0.12551	0	0	0	0.03364	0.05275	0.05805	0.01302	0.04058	0.02285	0.01657	0	0.00835	0.03237	0.05866	0	0.01079	0.02592	0.00809	0.02966	0.00975	0.02144	0.02159	0.01406	0.02155
SGB34832	0.04276	0	0.0423	0	0	0.29145	0.29471	0	0.27021	0	0.1115	0.00276	0.00432	0	0.01276	0	0.01111	0	0	0	0	0	0.01301	0	0.00322	0	0.06764	0	0	0	0	0.0855	0.11468	0.08882	0.05644	0.08346	0.07028	0.16822	0.00772	0.2605	0	0	0	0	0.01105	0.00727	0.00736	0	0	0	0.02647	0	0	0	0.00037	0.00114	0.02804	0	0.00538	0	0	0	0.00243	0	0.00023	0	0	0	0	0	0	0	0	0	0
SGB34198	0.04067	0.00182	0.06417	0	0	1.8664	0.15465	0	0.37307	0	0.43599	0.00106	0.04717	0	0.00105	0	0.00779	0	0	0	0	0	0.00606	0	0.00012	0	0	0	0	0	0	0	5.00E-05	0	0	0	0	0.08934	0.17177	0.18099	0	0	0	0	0.01678	0.0125	0.01465	0	0	0	0.01298	0	0	0	4.00E-05	0.00074	0.11019	0	0.00023	0	0	0	0.00077	0	6.00E-05	0	0	0	0	0	0	0	0	0	0.00031
SGB6847	0.03887	0.01974	0.02704	0	0	0.00718	0.00411	0	0	0	0.01243	0	0	0	0	0	0	0	0.00104	0	0	0	0.00135	0	0	0	0.02318	0.00664	0	0	0	0.02581	0.0203	0.0276	0.00562	0.01111	0.01362	0.00712	0.00653	0	0	0.03576	0.02845	0.04367	0.00391	0.00869	0.00759	0.00345	0.00564	0.01319	0.00347	0	0	0	0.00597	0.00224	0	0.01101	0.00385	0	0.00037	0	0.00264	0.00059	0.00186	0	0.02088	0.31118	0.02645	0.00416	0.00444	0.00343	0.00545	0.00218	0
SGB29861	0.03811	0.00668	0.08067	0	0	0.00834	0.00165	0	0.00774	0	0.00479	0	0.01413	0	0.0172	0	0.02027	7.00E-05	0	0	0.00055	0.0002	0.02652	0	0.00511	0	0.04914	0.00414	0	0	0.00024	0.06867	0.0595	0.09697	0.02627	0.02567	0.02597	0.03042	0.01971	0.00618	0	0	0	0	0.15965	0.21265	0.14391	0.04831	0.05088	0.04847	0.03509	0	0	0.00022	0.00244	0.0036	0.00497	0	0.00342	0	0	0	0.0134	0	0.00186	0	0	0	0	7.00E-05	0	0.00042	0.00317	0.00298	0.00163
SGB7674	0.0381	0.00748	0.00497	0	0	0	0	0	0	0	0	0	0	0	0	0	0	0	0	0	0	0	0	0	0	0	0.03125	0	0	0	0	0.0155	0.02437	0.02806	0.0164	0.01687	0.01224	0	0	0	0	0	0	0	0	0	0	0	0	0	0	0	0	0	0	0	0	0	0	0	0	0	0	0	0	0	0	0	0	0	0	0	0	0	0
SGB4602	0.03718	0.00157	0.03422	0	0	0.03464	0.01422	0	0.02693	0	0.02263	0	0.0103	0	0.00883	0	0.0056	0	0.01847	0	0.01481	0	0.00489	0	0.02394	0	0	0	0	0	0	0	0	0.00353	0	0	0	0.00085	0	0.00175	0	0	0	0	0.00569	0.00813	0.01125	0	0	0	0.00145	0	0.0388	0	0.00882	0	0.00205	0	0.01065	0	0.05236	0	0.0171	0	0.01197	0	0	0	0	0.00922	0.01188	0.02133	0.04259	0	0
SGB15161	0.03576	0.00361	0.03346	0	0	0.02654	0.02721	0	0.04079	0	0.0404	0	0.01427	0	0.01776	0	0.00739	0	0.02105	0	0.02184	0	0.0032	0	0.03061	0	0	0	0	0	0	0	0	0	0	0	0	0.00042	0	0.00338	0	0	0	0	0.00347	0.00435	0.01157	0	0	0	0.00191	0	0.03737	0	0.01027	0	0.00489	0	0.00931	0	0.06582	0	0.01644	0	0.01273	0	0	0	0	0.00495	0.00989	0.01367	0.01717	0	0
SGB87563	0.03437	0.00231	0.01996	0	0	0.00369	0.00471	0	0.01019	0	0.00242	0	0.00176	0	0.00016	0	0.00056	0	0	0	0	0	0.00022	0	0	0	0.0381	0	0	0	0	0.02688	0.02866	0.0247	0.00203	0.00669	0.00499	0.01106	0.00134	0.06281	0	0	0	0	0.00696	0.00646	0.0068	0.00071	0.00081	0.0016	0.0008	0	0	0	0.00038	0.00028	0	0	0.00051	0	0	0	0	0	7.00E-05	0	0	0	0	0	0	0	0	0	0
SGB79035	0.03396	0	0.00605	0	0	0	0	0	7.00E-05	0	0	0	0.06747	0	0	0	0	0	0	0	0	0	0	0	0	0	0	0	0	0	0	0.08258	0.1421	0.10532	0.02021	0.01485	0.014	0.02632	0	0	0	0	0	0	0.37092	0.5239	0.36206	0.03345	0.02118	0.04393	0.74225	0	0	0.00256	0	0	0	0	0	0	0	0	0	0	0	0	0	0	0	0	0	0	0	0	0
SGB16648	0.03333	0.07978	0.04738	0.00825	0	5.3633	0.0094	0	0.075	0	0.05374	0.02452	0.00086	0.01689	0.02061	0	0.00039	0	0	0.06204	0	0	0.01779	0	0.00081	0	0	0	0.19578	0.07511	0.13622	0	0	0	0	0	0.00188	0.01923	0.39774	0.14061	0.001	0	0	0	0.02002	0.01183	0.03323	0	0	0	0.03076	0	0	0	0	0.00643	0.913	0	0	0.00033	0	0	0	0.00142	0	0	0.00066	0.00618	0.00135	0	0	0	0.00564	0.02	0.01999
SGB66234	0.033	0	0.00201	0	0	0.00381	0	0	0	0	0	0	0.00628	0	0.01881	0	0.0205	0	0.0013	0	0.02318	0	0.01004	0	0.0029	0	0.00352	0	0	0	0	0	0	0	0	0	0	0	0	0	0	0	0	0	0	0	0	0	0	0	0	0	0	0	0.00248	0.0026	0.10421	0	0.00285	0	0.00043	0	0	0	6.00E-05	0	0	0	0	0	0	0	0	0	0
SGB17127	0.03131	0	0.02558	0	0	0.02243	0	0	0.00679	0	0	0	0	0	0	0	0	0	0	0	0	0	0	0	0	0	0.01967	0.00013	0	0	0	0.02582	0.05847	0.04985	0.11461	0.03027	0.03762	0.03711	0	0.02621	0	0	0	0	0.15242	0.16678	0.16185	0	0	0	0.66037	0	0	0	0	0	0	0	0	0	0	0	0	0	0	0	0	0	0	0	0	0	0	0	0
SGB2306	0.03039	0.00126	0	0	0	0.00203	0.00148	0	0.0011	0	0.00077	0	0.00069	0	0	0	0	0	0.00158	0	0.00805	0	0.0001	0	0.00709	0	0	0	0	0	0	0	0	0	0	0	0	0	0	0	0	0	0	0	0	0	0	0	0	0	0	0	0	0	0.02625	0	0	0	0.00015	0	0.00353	0	0.01842	0	0	0	0	0	0	0	0	0	0	0	0
SGB66207	0.02797	0.00428	0.00156	0	0	0.08587	0.08244	0	0.08288	0	0.09409	0	0.00305	0	0.00162	0	0.00152	0	0.01747	0	0.00156	0	0.00725	0	0.00311	0	0	0	0	0	0	0	0	0.00029	0	0	0	0.00836	0	0.03145	0	0	0	0	0.00935	0.00898	0.01686	0	0	0	0.00856	0	0.10059	0	0.01421	0	0.00124	0	0.02378	0	0.014	0	0.03005	0	0.01131	0	0	0	0	0.00441	0.01115	0.01194	0.00135	0	0
SGB16632	0.02427	0	0	0	0	0.05437	0.0069	0	0.01608	0	0.0008	0	0	0	0	0	0	0	0	0	0	0	0	0	0	0	0	0	0	0	0	0.00073	0.00283	0	0	0	0	0.00052	0	0.03867	0	0	0	0	0.01231	0.00479	0.01775	0	0	0	0.01953	0	0	0	0	0.16811	0	0	8.00E-05	0	0	0	0	0	0	0	0	0	0	0	0	0	0	0	0
SGB4605	0.02188	0	0.00217	0	0	0.05207	0.04597	0	0.04304	0	0.03312	0	0.00931	0	0.01385	0	0.00238	0	0.02087	0	0.01556	0	0.00605	0	0.02767	0	0	0	0	0	0	0	0	0	0	0	0	0.00063	0	0.00763	0	0	0	0	0.00974	0.00974	0.01489	0	0	0	0.00163	0	0.00215	0	0.00614	0	0.01029	0	0.00988	0	0.03816	0	0.02313	0	0.00958	0	0	0	0	0.00731	0.00931	0.0198	0.00849	0	0
SGB29723	0.02139	0.00165	0.02414	0	0	0.00102	0.08228	0	0.07656	0	0.00935	0	0.00047	0	0	0	0.00267	0	0	0	0	0	0.00496	0	0	0	0.27641	0	0	0	0	0.50563	0.69957	0.69845	0.15072	0.22833	0.30013	1.21725	0.00249	0.28764	0	0	0	0	0.12808	0.15884	0.11859	0	0	0	0	0	0	0	0	0	0.00554	0	0.00427	0	0	0	0.00052	0	0	0	0	0	0	0	0	0	0	0	0
SGB66191	0.02068	0.00275	0.00548	0	0	0.06225	0.02521	0	0.05031	0	0.05353	0	0.00895	0	0.01538	0	0.00622	0	0.02383	0	0.00994	0	0.00351	0	0.01988	0	0	0	0	0	0	0	0	0	0	0	0	0.00072	0	0.00349	0	0	0	0	0.00134	0.00131	0.0103	0	0	0	0.0003	0	0.03037	0	0.00632	0	0.00143	0	0.00834	0	0.01501	0	0.01649	0	0.0082	0	0	0	0	0.00053	0.01266	0.0093	0	0	0
SGB7838	0.02054	0.00762	0.64931	0	0	0.49247	0.07763	0	0.01539	0	0.17262	0	0	0	0	0	0.00065	0	0	0	0	0	0	0	0	0	0.00486	0	0	0	0	0	0	0	0.10736	0.01225	0.00365	0	0	0	0	0	0	0	0	0	0	0	0	0	0	0	0	0	0	0	0	0	0	0	0	0	0	0	5.00E-05	0	0	0	0	0	0	0	0	0	0
SGB66070	0.01986	0.00225	0.00119	0	0	0.05958	0.0349	0	0.04344	0	0.06151	0	0.02332	0	0.0277	0	0.01419	0	0.05271	0	0.03029	0	0.01095	0	0.06103	0	0	0	0	0	0	0	0	0	0.01167	0.00636	0.00039	0.0068	0	0.01577	0	0	0	0	0.01257	0.01308	0.02227	0	0	0	0.0058	0	1.29665	0	0.03264	0.0106	0.00696	0	0.02513	0	0.03804	0	0.05299	0	0.04359	0	0	0	0	0.05638	0.05173	0.07719	0.04034	0.0111	0.01219
SGB1836_group	0.01962	0.00195	0.01587	0	0	0.00063	0	0	0	0	0	0	0.007	0	0.02509	0	0.01473	0	0.02153	0	0.01824	0	0.00081	0	0.01962	0	0	0	0	0	0	0	0	0	0	0	0	0	0	0	0	0.00309	0.00134	0	0	0	0	0	0	0	0	0	0.08966	0	0.00796	0	0.00022	0	0.01628	0	0.01999	0	0.0055	0	0.01189	0	0	0	0	0.00455	0.00786	0.01781	0.00146	0	0
SGB4877	0.01953	0.0007	0.00452	0	0	0.01249	0.00341	0	0.00949	0	0.01027	0	0.00896	0	0.01088	0	0.00473	0	0.02231	0	0.0123	0	0.00176	0	0.02811	0	0	0	0	0	0	0	0	0	0	0	0	0	0	0.00065	0	0	0	0	0	0.00063	0.00026	0	0	0	0.00044	0	0.02699	0	0.00609	0	0.00311	0	0.00658	0	0.01834	0	0.01278	0	0.00999	0	0	0	0	0.00826	0.01054	0.01798	0.00652	0	0
SGB15759	0.019	0.00032	0.04227	0	0.03312	0	0	0	0.00055	0	0	0	0.01007	0	0.00093	0	0.01135	0.00021	0	0.00176	0	0	0.00148	0	0	0	0.02009	0.0008	0	0	0	0.01161	0.01156	0.01197	0.00019	0.00158	0.00013	0.00795	0.02807	0	0.00755	0	0	0	0.01167	0.01535	0.00915	0.00374	0.00412	0.00283	0.00948	0	0	0	0.00071	0.00018	0.00282	0	0.00178	0	0	0	0.00035	0	0.00114	0	0	0	0	0	0	0	0.00591	0.00372	0.00593
SGB14996	0.01814	0	0.00051	0	0	0.01313	0.01113	0	0.0144	0	0.01119	0	0.0046	0	0.00532	0	0.00111	0	0.00998	0	0.00634	0	0.00234	0	0.00882	0	0	0	0	0	0	0	0	0	0	0	0	0.00017	0	0.00057	0	0	0	0	0	0	0	0	0	0	0.00087	0	0.02224	0	0.00227	0	0	0	0.00306	0	0.00815	0	0.00589	0	0.00244	0	0	0	0	0	0	0.00213	0	0	0
SGB15302	0.01809	0.00519	0.00696	0	0	0.01853	0.00206	0	0.00576	0	0.00704	0	0.00806	0	0.00961	0	0.00331	0	0.01433	0	0.01574	0	0.00265	0	0.01712	0	0	0	0	0	0	0	0	0	0	0	0	0.00041	0	0.00054	0	0	0	0	0	0	0	0	0	0	0.00069	0	0.12372	0	0.00896	0	0.00055	0	0.00703	0	0.00764	0	0.01347	0	0.00954	0	0	0	0	0.00034	0.003	0.00435	0.00043	0	0
SGB63217	0.01666	0	0.00201	0	0	0.04326	0.02206	0	0.04049	0	0.02593	0	0.03194	0	0.03725	0	0.01324	0	0.05956	0	0.04703	0	0.00551	0	0.07778	0	0	0	0	0	0	0	0	0	0	0	0	0	0	0.00067	0	0	0	0	0.00055	0	0.00494	0	0	0	0.00071	0	0.19662	0	0.0253	0	0.00599	0	0.01961	0	0.0402	0	0.06662	0	0.03233	0	0	0	0	0.00899	0.02822	0.02835	0.0135	0	0
SGB59894	0.01645	0.00405	0.00363	0	0	0.03862	0.00728	0	0.00919	0	0.01864	0	0.02656	0	0.02409	0	0.01115	0	0.04685	0	0.02601	0	0.01493	0	0.07328	0	0	0	0	0	0	0	0	0.00583	0.04332	0	0	0.00282	0	0.00305	0	0	0	0	0.00341	0.00782	0.00743	0	0	0	0.00621	0	0.33061	0	0.03434	0.00795	0.02424	0	0.02644	0	0.05038	0	0.06123	0	0.05077	0	0	0	0	0.04555	0.04812	0.07004	0.02678	0.0102	0.01192
SGB1948	0.01589	0	0.00477	0	0	0.00233	0	0	0	0	0	0	0.00457	0	0.0028	0	0	0	0.00327	0	0	0	0	0	0.00968	0	0	0	0	0	0	0	0	0	0	0	0	0	0	0	0	0	0	0	0	0	0	0	0	0	0	0	0.01938	0	0.00018	0	0	0	0.00122	0	0.02193	0	0.0007	0	0.00094	0	0	0	0	0.00355	0.00617	0.00946	0	0	0
SGB15312	0.01518	0	0.00227	0	0	0.00328	0.0035	0	0.01088	0	0.00639	0	0.0014	0	0.01213	0	0.00421	0	0.00994	0	0.00542	0	0.00262	0	0.00626	0	0	0	0	0	0	0	0	0	0	0	0	0	0	3.00E-05	0	0	0	0	0	0	0	0	0	0	0	0	0.0089	0	0.01425	0	0.00308	0	0.00945	0	0.13858	0	0.01257	0	0.01095	0	0	0	0	0.00605	0.01136	0.02397	0.0126	0.00294	0
SGB15156_group	0.01406	0	0.00105	0	0	0.03968	0.02727	0	0.05278	0	0.02683	0	0.01857	0	0.01771	0	0.00608	0	0.02766	0	0.02919	0	0.00515	0	0.04053	0	0	0	0	0	0	0	0	0	0	0	0	0	0	0.0014	0	0	0	0	0.00013	0	0.0055	0	0	0	0.00042	0	0.0594	0	0.01239	0	0.00449	0	0.01074	0	0.05237	0	0.02439	0	0.02037	0	0	0	0	0.00396	0.01114	0.01682	0.01462	0	0
SGB14844	0.01364	0	0.00088	0	0	0.00986	0.00393	0	0.00429	0	0.00547	0	0.00862	0	0.00536	0	0.00334	0	0.01272	0	0.00767	0	0.0009	0	0.01935	0	0	0	0	0	0	0	0	0	0	0	0	0	0	0	0	0	0	0	0	0	0	0	0	0	0	0	0.10607	0	0.00227	0	0	0	0.00344	0	0.01299	0	0.00763	0	0.00651	0	0	0	0	0	0.00055	0.00151	0	0	0
SGB715	0.01334	0.00165	0.00576	0	0	0.05177	0.00979	0	0.01435	0	0.02549	0	0	0	0	0	0	0	0	0	0	0	0.01011	0	0	0	0.02892	0	0	0	0	0	0	0	0	0	0	0.02777	0.00806	0.01464	0	0	0	0	0.01667	0.02596	0.02966	0.00146	0.00095	0.00462	0.01621	0	0	0	0	0	0	0	0.00057	0	0	0	0	0	0	0	0	0	0	0	0	0	0	0	0
SGB54315	0.01326	0.00501	0.0018	0	0	0.02091	0.00408	0	0.01128	0	0.00938	0	0.00777	0	0.00734	0	0.00325	0	0.01374	0	0.01527	0	0.00102	0	0.02733	0	0	0	0	0	0	0	0	0	0	0	0	0	0	0	0	0	0	0	0	0	0	0	0	0	0	0	0.00077	0	0.0052	0	0	0	0.00512	0	0.03381	0	0.01138	0	0.00552	0	0	0	0	0.00122	0.00543	0.00794	0	0	0
SGB6747	0.01299	0	0.01041	0	0	0.00835	0.00513	0	0.00678	0	0.00702	0	0.00522	0	0.0069	0	0.00396	0	0.00585	0	0.00997	0	0.00089	0	0.01629	0	0	0	0	0	0	0	0	0	0	0	0	0	0	0.00031	0	0.00469	0	0	0	0.00272	0.00387	0	0	0	0	0	0.00076	0	0.00151	0	0.00263	0	0.00406	0	0.03002	0	0.00314	0	0.00336	0	0	0	0	0.00727	0.00494	0.00986	0.00472	0	0
SGB1815	0.0129	0	0.01451	0	0	0.00019	0	0	0	0	0	0	0.01657	0	0.02732	0	0.00815	0	0.02906	0	0.04994	0	0.00653	0	0.07114	0	0	0	0	0	0	0	0	0	0	0	0	0	0	0	0	0	0	0	0	0	0	0	0	0	0	0	0.16791	0	0.0049	0	0.00692	0	0.00971	0	0.06361	0	0.00574	0	0.01435	0	0	0	0	0.0186	0.02363	0.03079	0.0074	0	0
SGB2311	0.01271	0	0.02024	0	0	0	0	0	0	0	0	0	0	0	0	0	0	0	0.01506	0	0	0	0	0	0	0	0	0	0	0	0	0	0	0	0	0	0	0	0	0	0	0	0	0	0	0	0	0	0	0	0	0	0	0	0	0	0	0	0.00154	0	0	0	0.00043	0	0	0	0	0	0	0	0	0	0	0	0
SGB7841	0.01196	0	0.16404	0	0	0.08119	0.00879	0	0.0975	0	0.03343	0	0.09791	0	0.32291	0	0.13092	0	0.01944	0	0.03527	0	0.05135	0	0.07724	0	0	0	0	0	0	0	0	0	0.01178	0	0	0.00406	0.00603	0.00227	0	0	0	0	0	0	0	0	0	0	0.00037	0	0	0	0.24741	0.23005	1.16474	0	0.26199	0.04793	0.71745	0.00355	0.6588	0.00736	0.46693	0	0	0	0	0.1949	0.13232	0.15625	0.0417	0.09008	0.07747
SGB30074	0.01125	0.00269	0.01005	0	0	0	0	0	0	0	0	0	0	0	0	0	0	0	0	0	0	0	0	0	0	0	0.00961	0	0	0	0	0.00384	0.00914	0.00591	0.00186	0.00098	0.00207	0	0.00404	0	0	0	0	0	0	0	0	0	0	0	0	0	0	0	0	0	0	0	0	0	0	0	0	0	0	0	0	0	0	0	0	0	0	0	0
SGB1832	0.01121	0	0.01487	0	0	0	0	0	0	0	0	0	0.00668	0	0.00782	0	0.00106	0	0.00501	0	0.01054	0	0	0	0.02613	0	0	0	0	0	0	0	0	0	0	0	0	0	0	0	0	0	0	0	0	0	0	0	0	0	0	0	0.00552	0	0.0028	0	0	0	0.00262	0	0.00778	0	0.002	0	0.0036	0	0	0	0	0.00118	0.004	0.01238	0.01544	0	0
SGB4053	0.01111	0	0	0	0	0.04224	0.02848	0	0.03094	0	0.04566	0	0	0	0	0	0	0	0	0	0	0	0.00021	0	0	0	0	0	0	0	0	0	0	0	0	0	0	0.00556	0	0.01013	0	0	0	0	0.00921	0.00619	0.01574	0	0	0	0.00505	0	0.01252	0	0	0	0	0	0.00382	0	0.00078	0	0.00061	0	0.00057	0	0.00329	0.20422	0.02367	0.00031	0	0.00032	0	0	0
SGB4800	0.01078	0	0.00354	0	0	0.02222	0.00386	0	0.02393	0	0.01	0	0.02279	0	0.02383	0	0.00767	0	0.02405	0	0.03926	0	0.00326	0	0.0547	0	0	0	0	0	0	0	0	0	0	0	0	9.00E-05	0	0.00102	0	0	0	0	0.00292	0.00149	0.00656	0	0	0	0.00048	0	0.12434	0	0.01407	0	0.00581	0	0.01957	0	0.04564	0	0.02185	0	0.01855	0	0	0	0	0.01759	0.0256	0.02896	0.01751	0.00037	0
SGB5792	0.01069	0	0	0	0	0	0	0	0	0	0	0	0.00117	0	0.00077	0	0	0	0.00408	0	0.00256	0	0	0	0.00374	0	0	0	0	0	0	0	0	0	0	0	0	0	0	0	0	0	0	0	0	0	0	0	0	0	0	0	0	0	0	0	0	0	0	0	0.00137	0	0.00242	0	0.00552	0	0	0	0	0	0	0	0	0	0
SGB14906	0.01011	0	9.00E-05	0	0	0.0263	0.01878	0	0.02715	0	0.01678	0	0.01646	0	0.01471	0	0.00656	0	0.02019	0	0.01961	0	0.00332	0	0.0346	0	0	0	0	0	0	0	0	0	0	0	0	0	0	0.00082	0	0	0	0	0	0	0.00144	0	0	0	0	0	0.07597	0	0.00741	0	0.00352	0	0.00779	0	0.05149	0	0.01531	0	0.01266	0	0	0	0	0.0002	0.00973	0.01114	0.00279	0	0
SGB14106	0.00975	0.0014	0	0	0	0.00249	0	0	0.00073	0	0.00074	0	0.00225	0	0.00542	0	0.0024	0	0.0128	0	0.00881	0	0	0	0.01102	0	0	0	0	0	0	0	0	0	0	0	0	0	0	0	0	0	0	0	0	0	0	0	0	0	0	0	0.01057	0	0.00514	0	0	0	0.00374	0	0.00671	0	0.00843	0	0.00694	0	0	0	0	0.00191	0.0047	0.01819	0	0	0
SGB2290	0.00945	0	0.00271	0	0	0	0	0	0	0	0	0	0.00189	0	0.00234	0	5.00E-05	0	0.00109	0	0.00135	0	0	0	0.00271	0	0	0	0	0	0	0	0	0	0	0	0	0	0	0	0	0	0	0	0	0	0	0	0	0	0	0	0.00981	0	0.00362	0	0	0	0.00264	0	0.01568	0	0.00118	0	0.00583	0	0	0	0	0	0	0.00062	0	0	0
SGB5684	0.00939	0	0	0	0	0.00265	0.00277	0	0.00189	0	0.00155	0	0.00096	0	0.00506	0	7.00E-05	0	0.00338	0	0.00219	0	0.0001	0	0.00522	0	0	0	0	0	0	0	0	0	0	0	0	0	0	0	0	0	0	0	0	0	0	0	0	0	0	0	0.00237	0	0.00013	0	0.00094	0	0.00086	0	0.01138	0	0.00175	0	0.001	0	0	0	0	0	0	0.00059	0	0	0
SGB63299	0.00933	0	0.00015	0	0	0.03606	0.03473	0	0.07806	0	0.03852	0	0.24062	0	0.18891	0	0.09803	0	0.22672	0	0.23014	0	0.02604	0	0.58405	0	0	0	0	0	0	0	0	0	0	0	0	0	0	0	0	0	0	0	0	0	0.00452	0	0	0	0	0	1.10559	0	0.1052	0	0.14505	0	0.08785	0	0.34832	0	0.14239	0	0.12877	0	0	0	0	0.04399	0.0777	0.06269	0.03897	0.00605	0.00266
SGB4029	0.00914	0	0.00172	0	0	0.01461	0.01638	0	0.01628	0	0.01884	0	0.00838	0	0.00594	0	0.00219	0	0.00685	0	0.00766	0	0.00113	0	0.01093	0	0	0	0	0	0	0	0	0	0	0	0	0	0	0.00042	0	0	0	0	0	0.00118	0.00259	0	0	0	0.00144	0	0.00252	0	0.0036	0	0.00066	0	0.00555	0	0.01195	0	0.00554	0	0.01112	0	0	0	0	0.00038	0.00228	0.00616	0	0	0
SGB14863	0.00874	0	0	0	0	0.01432	0.01038	0	0.01192	0	0.01575	0	0.00791	0	0.00291	0	0.00108	0	0.00714	0	0.00433	0	0.00093	0	0.01151	0	0	0	0	0	0	0	0	0	0	0	0	0.00073	0	0.00243	0	0	0	0	0	0	0	0	0	0	0.00072	0	0.0281	0	0.00263	0	0.0007	0	0.0047	0	0.00857	0	0.00453	0	0.00372	0	0	0	0	0	0	0.00248	0	0	0
SGB4599	0.00834	0	0.0003	0	0	0.08402	0.06986	0	0.05774	0	0.09502	0	0.00211	0	0.00137	0	0.00133	0	0.01166	0	0.00374	0	0.00777	0	0.00664	0	0	0	0	0	0	0	0	0	0	0	0	0.00427	0	0.01177	0	0	0	0	0.02379	0.02486	0.03579	0	0	0	0.00424	0	0.006	0	0.00457	0	0.00218	0	0.00487	0	0.01013	0	0.00748	0	0.00605	0	0	0	0	0.01116	0.01868	0.01788	0.01749	0	0
SGB82718	0.00826	0	0.00282	0	0	0.00615	0.00648	0	0.00811	0	0.0106	0	0	0	0	0	0	0	0	5.00E-05	0	0	0	0	0	0	0.00019	0	0	0	0	0	0	0	0.00076	0	0.00016	0.00731	0.03357	0.00425	2.00E-05	0	0	0	0.01147	0.01722	0.01512	0.00331	0.0042	0.00704	0.0116	0	0	0	0	0	0	0	0	0.00055	0	0	0	0.0001	0	0	0	0	0.00142	0	0	0	0.00518	0.0055	0.00375
SGB4618	0.00802	7.00E-05	0.00314	0	0	0.00625	0.00323	0	0.00572	0	0.00479	0	0.0014	0	0.00176	0	0.00148	0	0.00361	0	0.00244	0	0.00048	0	0.00495	0	0	0	0	0	0	0	0	0	0	0	0	0	0	0.00024	0	0	0	0	0	0.00018	9.00E-05	0	0	0	2.00E-05	0	0	0	0.00253	0	0.00184	0	0.00437	0	0.01125	0	0.00332	0	0.00315	0	0	0	0	0.00319	0.0034	0.00679	0.00264	0	0
SGB17322	0.00774	0	0	0	0	0.00391	0	0	0.0009	0	0	0	0.00163	0	0.00069	0	0	0	0.00115	0	0	0	0.00062	0	0	0	0	0	0	0	0	0	0	0	0	0	0	0	0	0	0	0	0	0	0	0	0	0	0	0	0.00133	0	0.28782	0	0.00381	0	0	0	0.00217	0	0.03402	0	0.03651	0	0.00198	0	0	0	0	0.00107	0.01104	0.01129	0	0	0
SGB66176	0.0077	0	0.00259	0	0	0.00449	0.00177	0	0.00845	0	0.00796	0	0.00135	0	0.00402	0	0.00074	0	0.00528	0	0.00266	0	0.00028	0	0.00585	0	0	0	0	0	0	0	0	0	0	0	0	0	0	0	0	0	0	0	0	0	0.00076	0	0	0	0	0	0.01251	0	0.00154	0	0.00506	0	0.00157	0	0.01801	0	0.00713	0	0.0047	0	0	0	0	0.00155	0.00387	0.01129	0.01125	0	0
SGB66172	0.00749	0	0.00181	0	0	0.01056	0.01368	0	0.01049	0	0.01518	0	0.00057	0	0	0	0	0	0.00289	0	0.00079	0	0	0	0.00458	0	0	0	0	0	0	0	0	0	0	0	0	0	0	0.00058	0	0	0	0	0	0	0	0	0	0	0	0	0.00791	0	0.00931	0	0	0	0.00853	0	0.01202	0	0.01202	0	0.01009	0	0	0	0	0	0.00048	0.00216	0	0	0
SGB4603	0.00742	0	0	0	0	0.02714	0.01445	0	0.01437	0	0.01586	0	0.00584	0	0.0083	0	0.00191	0	0.01033	0	0.00807	0	0.00345	0	0.01612	0	0	0	0	0	0	0	0	0	0	0	0	6.00E-05	0	0.00153	0	0	0	0	0.00181	0.00326	0.01146	0	0	0	0.00088	0	0.05777	0	0.0028	0	0	0	0.00469	0	0.00972	0	0.00474	0	0.00277	0	0	0	0	0.00156	0.00351	0.00577	0.00037	0	0
SGB4030	0.00731	0	0.00055	0	0	0.00818	0.003	0	0.00912	0	0.00461	0	0.00449	0	0.00432	0	0.00196	0	0.00801	0	0.00612	0	0.00069	0	0.01061	0	0	0	0	0	0	0	0	0	0	0	0	0	0	0	0	0	0	0	0	0	0	0	0	0	0	0	0.0095	0	0.00392	0	0.001	0	0.0066	0	0.0138	0	0.0066	0	0.00509	0	0	0	0	0.00304	0.00314	0.00543	0	0	0
SGB2284	0.00708	0	0	0	0	0	0	0	0	0	0	0	0.00036	0	0	0	0	0	0	0	0.00207	0	0	0	0.00052	0	0	0	0	0	0	0	0	0	0	0	0	0	0	0	0	0	0	0	0	0	0	0	0	0	0	0	0.01862	0	0	0	0	0	0.00044	0	0.00534	0	0.00081	0	0.00129	0	0	0	0	0	0	0	0	0	0
SGB15304	0.00686	0	0	0	0	0.02587	0.01298	0	0.01711	0	0.01116	0	0.01223	0	0.00988	0	0.00286	0	0.00893	0	0.01326	0	0.00083	0	0.01752	0	0	0	0	0	0	0	0	0	0	0	0	0	0	0.00246	0	0	0	0	0	0	0	0	0	0	0.00088	0	0.00639	0	0.00544	0	0.00168	0	0.0062	0	0.03275	0	0.00979	0	0.01487	0	0	0	0	9.00E-05	0.00311	0.00255	0	0	0
SGB7800	0.0065	0	0.01651	0	0	0	0.22886	0	0.13438	0	0.03452	0	0.01365	0	0.00579	0	0.01297	0	0.0772	0.00252	0.02826	0	0.03852	0	0.02211	0	0	0	0	0	0	0.00037	0.0007	0.0009	0	0	0	0.14403	0.0026	0.06384	0	0	0	0	0.01155	0.00799	0.00816	0	0	0	0	0	0	0	0.06048	0.04518	0.00291	0	0.07472	0.00602	0.00651	0	0.04948	0	0.02238	0	0	0	0	0.09091	0.08364	0.0997	0.02265	0.01649	0.01702
SGB4619	0.00642	0	0.00096	0	0	0.00536	0.00155	0	0.00881	0	0.0024	0	0.02493	0	0.02275	0	0.01026	0	0.02802	0	0.02669	0	0.00567	0	0.06452	0	0	0	0	0	0	0	0	0	0	0	0	0	0	0.00061	0	0	0	0	0	0	0.00017	0	0	0	6.00E-05	0	0.05568	0	0.01167	0	0.00942	0	0.00978	0	0.05608	0	0.01884	0	0.01597	0	0	0	0	0.01697	0.02379	0.02561	0.01956	0.00063	0
SGB87967	0.00639	0.00115	0	0	0	0	0	0	0	0	0	0	0	0	0	0	0	0	0	0	0	0	0	0	0	0	0	0	0	0	0	0	0	0	0	0	0	0	0	0	0	0	0	0	0	0	0	0	0	0	0	0	0	0	0	0	0	0	0	0	0	0	0	0	0	0	0	0	0	0	0	0	0	0	0
SGB4028	0.00618	0	0.0007	0	0	0.00504	0	0	0	0	0	0	0.00251	0	0.00417	0	0.00121	0	0.00535	0	0.00336	0	0.00018	0	0.00784	0	0	0	0	0	0	0	0	0	0	0	0	0	0	0	0	0	0	0	0	0	0	0	0	0	0	0	5.00E-05	0	0.00193	0	0	0	0.00244	0	0.00581	0	0.00593	0	0.00316	0	0	0	0	0	0.00297	0.00353	0.0024	0	0
SGB34307	0.00604	0.0023	0.00369	0	0	0.00129	0.0125	0	0.00908	0	0.01858	0	0.02025	0	0.01649	0	0.01102	0	0.00079	0	0.01979	0	0.01046	0	0.01047	0	0.00648	0	0	0	0	0.00972	0.01182	0.0093	0.00027	0.0023	0.00117	0.00026	0.00729	0	0	0	0	0	0	0	0	0	0	0.00067	0	0	0	0	0.0058	0.00028	0.00054	0	0.01973	0	0.00089	0	0.00798	0	0.01481	0	0	0	0	0.00312	0.00877	0.00409	0	0	0
SGB4628	0.00601	0	0.00109	0	0	0.01787	0.00261	0	0.00609	0	0.00852	0	0	0	0.00077	0	0	0	0.00274	0	0.00019	0	0.00068	0	0.0013	0	0	0	0	0	0	0	0	0	0	0	0	0	0	0	0	0	0	0	0	0	0.00102	0	0	0	9.00E-05	0	0.02322	0	0.00126	0	0	0	0.00091	0	0.00482	0	0.00176	0	0.00123	0	0	0	0	0	0.00074	0.0019	0	0	0
SGB1829	0.00588	0	0.0048	0	0	0	0	0	0	0	0	0	0	0	0	0	0	0	0.00021	0	0.00095	0	0	0	0	0	0	0	0	0	0	0	0	0	0	0	0	0	0	0	0	0	0	0	0	0	0	0	0	0	0	0	0	0	0	0	0	0	0	0	0.00136	0	0	0	0	0	0	0	0	0	0	0	0	0	0
SGB12515	0.00567	0	0.05128	0.00037	0	0	0.00044	0	0.01675	0	0	0	0.11426	0	0	0	0.00131	0.0028	0	0	0	0	0	0	0.0032	0	0.47492	0	0	0	0	0	0	0	0	0	0	0.05028	0	0.00441	0	0	0	0	0.00872	0.00899	0.00502	0.01498	0.01411	0.02267	0.00101	0	0	0	0	0.00069	0.00119	0	0.00065	0	0	0	0	0	0	0	0	0	0	0	0	0	0	0	0
SGB33736	0.00557	0	0.00025	0	0	0.00033	0	0	0	0	0	0.0035	4.00E-05	0	0.00034	0	0.00537	0	0	0	0	0	0.00411	0	0.00118	0	0.00023	0	0	0	0	0.00064	0.00208	0	0	0	0	0	0	0	0.0009	0	0	0	0	0.00013	0	0	0	0	2.00E-05	0	0	0	0	0.00591	0.00404	0	8.00E-05	0	0	0	6.00E-05	0	0	0	0	0	0	0	0	0	0	0	0
SGB7962	0.00553	0	0.04479	0	0	0.02383	0.00054	0	0.01025	0	0.05456	0	0.00466	0	0.00581	0	0.0192	0	0.06233	0	0.02679	0	0.03249	0	0.02249	0	0	0	0	0	0	0	0	0	0	0	0	0	0	0.00017	0	1.55884	1.29577	1.03679	0	0	0.00118	0	0	0	0	0	0	0	0.02335	0.00224	0.00289	0.00396	0.06982	0.00492	0.00162	0	0.05102	0	0.01212	0	0.14552	0.31893	0.15713	0.0271	0.03682	0.03519	0.00301	0.00855	0.00382
SGB82637	0.00552	0	0.00702	0	0	0.12885	0.01101	0	0.04591	0	0.01998	8.00E-05	0	0	0	0	0.00136	0	0	0	0	0	0	0	6.00E-05	0	0.00106	0	0.03747	0.01399	0.06507	0.08713	0.1952	0.09129	0.1334	0.05021	0.06587	0.03128	0	0.05459	0	0	0.00101	0	0.10014	0.17683	0.12866	0	0	0	0.24024	0	0	0	0	0.01025	0.00204	0	2.00E-05	0	0	0	0.0007	0	0	0	0	0	0	0	0	0	0	0	0
SGB2286	0.00545	0	0.02404	0	0	0.00029	0	0	0	0	0	0	0.00053	0	0	0	0.01078	0	0.00385	0	5.00E-05	0	0.00014	0	0.02334	0	0	0	0	0	0	0	0	0	0	0	0	0	0	0	0	0	0	0	0	0	0	0	0	0	0	0	0.13134	0	0.01204	0	0.00299	0	0.01121	0	0.04369	0	0.01302	0	0.01812	0	0	0	0	0.00726	0.01886	0.02037	0.00168	0	0
SGB4175	0.00545	0	0	0	0	0.00191	0	0	0	0	0	0	0.00055	0	0.00097	0	0	0	0.00336	0	0.00209	0	0	0	0.00401	0	0	0	0	0	0	0	0	0	0	0	0	0	0	0	0	0	0	0	0	0	0	0	0	0	0	0	0.00043	0	9.00E-05	0	0	0	0	0	0.01105	0	0.00111	0	0.00111	0	0	0	0	0	0.00023	0	0	0	0
SGB30059	0.00542	0	0.00233	0	0	0.00067	0	0	0.00027	0	0.00228	0	0	0	0	0	0	0	0	0	0	0	0	0	0	0	0.00056	0	0	0	0	0	0	0	0	0	0	0	0.0435	0	0	0	0	0	0	0	0	0	0	0	0.00138	0	0	0	0	0	0	0	0	0	0	0	0	0	0	0	0	0	0	0	0	0	0.00226	0.00132	0.00168
SGB4774	0.0052	0	0	0	0	0.00966	0.00108	0	0.00294	0	0.00241	0	0.00588	0	0.00612	0	0.00194	0	0.00736	0	0.00846	0	0.00105	0	0.01697	0	0	0	0	0	0	0	0	0	0	0	0	0	0	0	0	0	0	0	0	0	0	0	0	0	0	0	0.00462	0	0.004	0	3.00E-05	0	0.00301	0	0.01491	0	0.00537	0	0.00769	0	0	0	0	0	0.00401	0.00508	0.00207	0	0
SGB4356	0.00511	0	0	0	0	0.00667	0.00496	0	0.0046	0	0.00836	0	0.00824	0	0.01128	0	0.00444	0	0.00789	0	0.01072	0	0.00126	0	0.02204	0	0	0	0	0	0	0	0	0	0	0	0	0	0	0	0	0	0	0	0	0	0	0	0	0	0	0	0.00506	0	0.0037	0	0.00528	0	0.00396	0	0.01491	0	0.00569	0	0.00667	0	0	0	0	0.0016	0.00663	0.00514	0.00426	0	0
SGB6768	0.00511	0	0.00156	0	0	0.01348	0.00658	0	0.01371	0	0.01249	0	0.00508	0	0.00508	0	0.00196	0	0.0067	0	0.00749	0	0.00178	0	0.01613	0	0	0	0	0	0	0	0	0.00036	0	0	0	0.0013	0	0.00156	0	0	0	0	0.00311	0.00747	0.0066	0	0	0	0.00129	0	0.0357	0	0.00242	0	0.00236	0	0.00564	0	0.01495	0	0.00358	0	0.00377	0	0	0	0	0.00789	0.00468	0.00866	0.00524	0	0
SGB4597	0.00508	0	0.00026	0	0	0.01509	0.0014	0	0.00245	0	0.00211	0	0.00246	0	0.00184	0	0.0003	0	0.00281	0	0.0029	0	0.00074	0	0.00637	0	0	0	0	0	0	0	0	0	0	0	0	0	0	0	0	0	0	0	0	0	0	0	0	0	0	0	0.00559	0	0.00013	0	0	0	0.00124	0	0.00516	0	0.00155	0	0.00157	0	0	0	0	0	0	0.00144	0	0	0
SGB16653	0.00504	0	0.00023	0	0	0.60906	0	0	0.0265	0	0.0047	0	0	0	0.00797	0	0	0	0	0	0	0	0	0	0	0	0	0	0	0	0	0	0	0	0	0	0	0	0.12059	0.16321	0	0	0	0	0.15556	0.1032	0.28804	0	0	0	0.00275	0	0	0	0	0.04121	0.04864	0	0	0	0	0	0	0.00027	0	0	0	0	0	0	0	0	0	0	0
SGB15138	0.00493	0	0.00045	0	0	0.00242	0.00136	0	0.00612	0	0.00143	0	0.001	0	0.00183	0	0.0002	0	0.00333	0	0.00237	0	0	0	0.00176	0	0	0	0	0	0	0	0	0	0	0	0	0	0	0	0	0	0	0	0	0	0	0	0	0	0	0	0.028	0	0	0	0	0	0.00061	0	0.01208	0	0.00097	0	0.00161	0	0	0	0	0	0	0.00331	0.00263	0	0
SGB17021	0.00487	0.01426	0.00355	0	0	0.07261	0	0	0.00821	0	0.01118	0	0	0	0.00142	0	0.002	0	0	5.00E-05	0	0	0	0	0	0	0.00017	0	0.03502	0.01159	0.01854	0	0	0	0	0	0	0.00157	0	0	0	0	0	0	0.00464	0.0092	0.00427	0	0	0	0.04849	0	0	0	0	0	0.02043	0	0.0001	0	0.00056	0	0.00856	0.00145	0	0	0.00673	0.00559	0.00333	0	0	0	0	0	0
SGB17082	0.00471	0	8.00E-05	0.00409	0	0.00202	0.01787	0	0.00651	0	0.00152	0.00066	0	0	0	0	0.00861	0.00961	0	0	0	0	0.00098	0.00928	0	0	0.00188	0	0	0	0	0	0	0	0	0	0	0.00751	0.01637	0.00683	0.05901	0	0	0.01094	0.01944	0.02575	0.0229	0	0	0	0.00179	0	0	0	0	0.00063	0.0043	0	0	0.0018	0	0	0	0	0	0	8.00E-05	0	0	0	0	0	0	0	0
SGB16640	0.00467	0	0	0	0	7.00E-05	0	0	0	0	0	0	0	0	0	0	0	0	0	0	0	0	0	0	0	0	0	0	0	0	0	0	0	0	0	0	0	0	0.00131	0	0	0	0	0	0	0	0	0	0	0	0	0	0	0	0	0	0	0	0	0	0	0	0	0	0	0	0	0	0	0	0	0	0	0	0
SGB15278	0.00461	0	0.00105	0	0	0.00472	0.00429	0	0.00706	0	0.00623	0	0.00331	0	0.00492	0	0.00145	0	0.0047	0	0.00335	0	0.00047	0	0.01096	0	0	0	0	0	0	0	0	0	0	0	0	0	0	0	0	0	0	0	0	0	0	0	0	0	0	0	0.05567	0	0.00209	0	4.00E-05	0	0.0028	0	0.00756	0	0.00435	0	0.00259	0	0	0	0	0	0	0.00076	0.00018	0	0
SGB14894	0.0045	0	0	0	0	0.00134	0	0	0	0	0.00032	0	0.00172	0	0.00212	0	9.00E-05	0	0.00149	0	0.00206	0	0	0	0.00463	0	0	0	0	0	0	0	0	0	0	0	0	0	0	0	0	0	0	0	0	0	0	0	0	0	0	0	0	0	0.00015	0	0	0	0.0021	0	0.01476	0	0.00269	0	0.00336	0	0	0	0	0	0	0.00085	0	0	0
SGB2303	0.00444	0	0	0	0	0	0	0	0	0	0	0	0.01056	0	0.00177	0	0.00271	0	0.01011	0	0.03369	0	0	0	0.01274	0	0	0	0	0	0	0	0	0	0	0	0	0	0	0	0	0	0	0	0	0	0	0	0	0	0	0	0.00876	0	0.00913	0	0	0	0.00439	0	0.08004	0	0.01373	0	0.00503	0	0	0	0	0	0	0	0	0	0
SGB15400	0.00424	0	0.00053	0	0	0.00589	0.00143	0	0.00012	0	0.00273	0	9.00E-05	0	0.00064	0	0	0	0.00139	0	0	0	0.0001	0	0.00058	0	0	0	0	0	0	0	0	0	0	0	0	0	0	0	0	0	0	0	0	0	0	0	0	0	0	0	0.04397	0	0.00149	0	0	0	0.00964	0	0.00166	0	0.00839	0	0.00309	0	0	0	0	0	0.00053	0.00038	0	0	0
SGB4622	0.0042	0	0	0	0	0.0161	0.01565	0	0.03715	0	0.01897	0	0.00336	0	0.00443	0	0.00144	0	0.01015	0	0.00486	0	0.00209	0	0.01131	0	0	0	0	0	0	0	0	0	0	0	0	0	0	0.00187	0	0	0	0	0.00129	0.00151	0.00556	0	0	0	0.00036	0	0.01005	0	0.00234	0	0.00158	0	0.00228	0	0.01247	0	0.0074	0	0.00328	0	0	0	0	0.0009	0.00412	0.00446	0.00061	0	0
SGB31060	0.00417	0	0.01059	0	0	0.00768	0	0	0.00666	0	0.00352	0.00266	0	0	0	0	0	0	0	0	0	0	0	0	0	0	0.00439	0	0	0	0	0	0	0	0	0	0	0	0	0	0	0	0	0	0.00015	0.00034	0	0	0	0	0.06563	0	0	0	0	0	0	0	0	0	0	0	0	0	0	0	0	0	0	0	0	0	0	0	0
SGB14985_group	0.00415	0	0.00221	0	0	0.00167	0.00043	0	0.00164	0	0.00394	0	0.00508	0	0.00584	0	0.00052	0	0.00567	0	0.01179	0	0.00036	0	0.01078	0	0	0	0	0	0	0	0	0	0	0	0	0	0	0	0	0	0	0	0	0	0	0	0	0	0	0	0	0	0.00161	0	4.00E-05	0	0.00241	0	0.03082	0	0.0012	0	0.003	0	0	0	0	0	0	0.00362	0.0217	0	0
SGB7093	0.0041	0	0.00264	0	0	0.00629	0.0034	0	0.00516	0	0.00599	0	0.00282	0	0.01255	0	0.00648	0	0.01807	0	0.01423	0	0.00853	0	0.01317	0	0	0	0	0	0	0	0	0	0	0	0	0.00236	0	0.0019	0	0	0	0	0.00061	0.00119	0.00401	0	0	0	0.00897	0	0	0	0.0006	0.00306	0.00191	0	0.00142	0	0.03676	0	0.00433	0	0.00288	0	0	0	0	0.00158	0.03177	0.00274	0	0	0
SGB4720	0.00394	0	0	0	0	0.00778	0.00391	0	0.00728	0	0.00863	0	0.00366	0	0.0039	0	0.00127	0	0.0065	0	0.0062	0	0.00092	0	0.01043	0	0	0	0	0	0	0	0	0	0	0	0	0	0	0	0	0	0	0	0	0	0.00053	0	0	0	0	0	0.0366	0	0.00319	0	0	0	0.00288	0	0.01102	0	0.00682	0	0.00545	0	0	0	0	0.00045	0.00196	0.0053	0	0	0
SGB19443	0.00389	0	0	0	0	0.00249	0	0	0	0	0	0	0.00901	0	0.01839	0	0	0	0.01327	0	0.01734	0	0.00225	0	0.00858	0	0	0	0	0	0	0	0	0	0	0	0	0	0	0	0	0	0	0	0	0	0	0	0	0	0	0	0.22646	0	0	0	0	0	0	0	0.00663	0	0.01138	0	0	0	0	0	0	0	0	0	0	0	0
SGB47274	0.00388	0.00103	0.00329	0	0.00189	0.02407	0.02665	0	0.02093	0	0.0673	0.00102	0	0	0	0	0	0	0	0	0	0	0	0	0	0	0.0025	0	0	0	0	0	0	0	0	0	0	0.01075	0.00591	0.0062	0.00011	0	0	0	0.01691	0.01514	0.02565	0.01205	0.01402	0.01345	0.00133	0	0	0.00108	0	0	0	0	0	0	0	0	0	0	0	0	0	0	0	0	0	0	0	0	0
SGB15311	0.00383	0	0	0	0	0.00886	0.00395	0	0.00513	0	0.00219	0	0.00959	0	0.00872	0	0.00406	0	0.01481	0	0.01523	0	0.00257	0	0.02807	0	0	0	0	0	0	0	0	0	0	0	0	0	0	0	0	0	0	0	0	0	0	0	0	0	0	0	0.03534	0	0.00579	0	0.00393	0	0.00387	0	0.0183	0	0.01248	0	0.00882	0	0	0	0	0	0.0154	0.00311	0.00727	0	0
SGB64159	0.00383	0	0.13184	0	0	0.2055	0.04403	0	0.17009	0	0.15667	0	0.11275	0	0.33277	0.00022	0.16659	0	0.11455	0.01524	0.20787	0	0.65926	0.01025	0.53053	0	0	0	0	0	0	0	0	0	0	0	0	0.03736	0	0.1191	0	0	0	0	0.19977	0.16337	0.20756	0	0	0	0.00632	0	0	0	0.15451	0.20428	1.11032	0.00044	0.29811	0.02112	0.15117	0.00036	1.27106	0.0288	0.34528	0	0.01932	0.01606	0.00898	0.65805	0.53605	0.65376	0.3613	0.57342	0.31116
SGB8528	0.00383	0	0.00038	0	0	0.00466	0.00146	0	0.00038	0	0.01202	0	0.00163	0	0.00199	0	9.00E-05	0	0.00094	0	0.00589	0	0.00049	0	0.00233	0	0	0	0	0	0	0	0	0	0	0	0	0.00039	0	0	0	0.00143	0	0	0	0.00527	0.00186	0	0	0	0.00017	0	0	0	0.00017	0	0.00716	0	0.0015	0	0.0028	0	0.00134	0	0.00122	0	0	0	0	0	0.00034	0	0.00299	0	0
SGB4773	0.00379	0	0	0	0	0.01603	0.00644	0	0.00905	0	0.01332	0	0.00017	0	9.00E-05	0	0	0	0.00215	0	0.00022	0	0.0002	0	0.00088	0	0	0	0	0	0	0	0	0	0	0	0	0	0	0	0	0	0	0	0	0	0	0	0	0	0	0	0.00501	0	7.00E-05	0	0	0	0.00102	0	0.00708	0	0.00193	0	0.00154	0	0	0	0	0	0.00196	0.002	0	0	0
SGB82747	0.00378	0.00035	0.01155	0	0	0	0.00027	0	0	0	0.00117	0	0	0	0	0	0	0	0.00016	0	0	0	0	0	0	0	0.00136	0	0	0	0	0	0	0	0	0	0	0	0.00672	0	0	0	0	0	0	0	0	0	0	0	0	0	0	0	0	0	0	0	0	0	0	0	0	0	0	0	0	0	0	0	0	0	0.00633	0.00234	0
SGB15403	0.0037	0	0	0	0	0.01312	0.008	0	0.00871	0	0.0118	0	0.00274	0	0.00253	0	0.00054	0	0.00443	0	0.0042	0	0.0007	0	0.00768	0	0	0	0	0	0	0	0	0	0	0	0	0	0	0	0	0	0	0	0	0	0	0	0	0	0	0	0.05357	0	0.00159	0	0	0	0.00237	0	0.00635	0	0.00419	0	0.00333	0	0	0	0	0	0.00114	8.00E-05	0	0	0
SGB4991	0.00363	0	0	0	0	0.00469	0.00065	0	0.00324	0	0.00094	0	0.00484	0	0.00408	0	0.00054	0	0.0052	0	0.00647	0	0.00081	0	0.01264	0	0	0	0	0	0	0	0	0	0	0	0	0	0	0	0	0	0	0	0	0	0	0	0	0	0	0	0.00807	0	0.00108	0	4.00E-05	0	0.00252	0	0.01697	0	0.00226	0	0.00313	0	0	0	0	0	0.00018	0.0011	0.00078	0	0
SGB7839	0.00362	0.00015	0.54088	0	0	0.00032	0.00032	0	0.00125	0	0.07419	0	1.46154	0.00632	1.44293	0.00704	0.90577	0.00064	1.14535	0.09065	1.85449	0.00988	0.88894	0	4.08666	0.00971	0.0034	0	0	0	0	0	0	0	0.34624	0.01224	0.00161	0	0.06772	0	0	0	0	0	0	0	0	0	0	0	0	0	0	0.00035	0.94054	0.55284	2.96891	0.0031	0.55644	0.0735	9.44596	0.13746	1.87587	0.02957	2.74924	0	0	0	0	1.65658	1.0864	1.48165	0.57406	0.80351	0.92643
SGB14846	0.00357	0	0.00017	0	0	0.00401	0	0	0.00059	0	0.00129	0	0	0	0.00107	0	0	0	0.0012	0	0	0	0	0	0.00113	0	0	0	0	0	0	0	0	0	0	0	0	0	0	0	0	0	0	0	0	0	0	0	0	0	0	0	0.04547	0	0	0	0	0	0	0	0.00209	0	0.00284	0	0.00116	0	0	0	0	0	0	0	0	0	0
SGB6746	0.00357	0	0.0001	0	0	0.00749	0.00373	0	0.00619	0	0.00829	0	0.00546	0	0.00372	0	0.00227	0	0.00526	0	0.00514	0	0.00158	0	0.01301	0	0	0	0	0	0	0	0	0	0	0	0	0	0	0.00061	0	0	0	0	0.0013	0.00109	0.00562	0	0	0	0.00021	0	0.02252	0	0.00232	0	0.00289	0	0.00467	0	0.0162	0	0.00452	0	0.00345	0	0	0	0	0.00323	0.00491	0.0091	0.00447	0	0
SGB10760	0.00352	0.00473	0.00609	0	0	0	0	0	0.00028	0	0	0	0.02302	0	0	0	0.01368	0	0	0	0	0	0	0	0	0	0.02213	0	0	0	0	0.01331	0.02525	0.00775	0	0	0	0.02646	0.00659	0.02051	0	0	0	0	0.07899	0.07953	0.07187	0.00262	0.00215	0.00464	0.03272	0	0	0	0	0	0	0	0.0013	0	0	0	0	0	0	0	0	0	0	0	0	0	0	0	0
SGB24891	0.00346	0.0044	0.00494	0	0	0.00495	0.00404	0	0.00201	0	0.00884	0	0	0	0.00017	0	0	0	0.00068	0	0	0	0.00083	0	0.00133	0	0.00182	0	0	0	0	0.00526	0.0028	0.00793	0.0018	0.00633	0.00413	0.00206	0.00048	0.00118	0	0.00498	0.00343	0.00214	0.00316	0.00578	0.00442	0	0	0.00107	0.00318	0	0	0	0.00227	0.0017	0	0.00025	0.00096	0	0.00035	0	0.00118	0.00088	0.00132	0	0	0	0	0.0014	0.00174	0	0.00139	0.00114	0
SGB14805	0.00342	0	0.0001	0	0	0	0	0	0	0	0	0	0.00521	0	0.00425	0	0.00141	0	0.00387	0	0.0062	0	0	0	0.01084	0	0	0	0	0	0	0	0	0	0	0	0	0	0	0	0	0	0	0	0	0	0	0	0	0	0	0	0.02234	0	0.00177	0	0.00184	0	0.00192	0	0.01127	0	0.00291	0	0.00396	0	0	0	0	0	0	0	0	0	0
SGB16502	0.00336	0	0.00282	0	0	0.28545	0.009	0	0.02076	0	0.00894	0	0	0	0	0	0	0	0	2.00E-05	0	0	0	0	0	0	0	0	0	0	0	0	0	0	0	0	0	0.00711	0.15767	0.01732	0	0	0	0	0.00028	0	0	0	0	0	0	0	0	0	0	0	0.01128	0	0	0	0	0	0	0	0	0	0	0	0	0	0	0	0	0	0
SGB7840	0.00335	0	0.09823	0	0	0.00284	0	0	0.01573	0	0.00608	0	1.77246	0.00834	1.28017	0	1.33322	0	2.45173	0.0787	2.93165	0	1.00071	0	5.44802	0.03804	0	0	0	0	0	0	0	0	0	0	0	0	0	0	0	0	0	0	0	0	0	0	0	0	0	0	0.00522	0.00809	2.15413	0.95783	7.45864	0.01091	1.05456	0.01087	3.57636	0.0096	0.99613	0.00556	3.4113	0	0	0	0	3.05753	2.70657	2.72966	1.72103	3.51752	2.87068
SGB15282	0.00329	0	0.0009	0	0	0.00165	0.00323	0	0.00671	0	0.00406	0	0.00039	0	0.00027	0	0.00047	0	0.00133	0	0.00334	0	0	0	0.00245	0	0	0	0	0	0	0	0	0	0	0	0	0	0	0	0	0	0	0	0	0	0	0	0	0	0	0	0.00055	0	0.00083	0	0	0	0.00048	0	0.00735	0	0.00086	0	0.00105	0	0	0	0	0	0	0	0	0	0
SGB63131	0.00325	0	0	0	0	0.01439	0.01622	0	0.03549	0	0.01314	0	0.0089	0	0.00885	0	0.00474	0	0.01528	0	0.01722	0	0.00248	0	0.02554	0	0	0	0	0	0	0	0	0	0	0	0	0	0	0.00302	0	0	0	0	0.00024	0	0.00344	0	0	0	0.0006	0	0.01635	0	0.00539	0	0.00471	0	0.00326	0	0.00862	0	0.01393	0	0.00608	0	0	0	0	0.00219	0.00526	0.00773	0.00148	0	0
SGB15382	0.0032	0	0.00056	0	0	0.00435	0.00085	0	0.00098	0	0.00181	0	0.00056	0	0.00132	0	0	0	0.0023	0	0.00195	0	0	0	0.0044	0	0	0	0	0	0	0	0	0	0	0	0	0	0	0	0	0	0	0	0	0	0	0	0	0	0	0	0.00098	0	0.00021	0	0	0	0.00083	0	0.0018	0	0.0017	0	0.00139	0	0	0	0	0	0	0	0	0	0
SGB11851	0.00319	0	0.0067	0	0	0	0	0	0	0	0	0	0	0	0	0	0	0	0	0	0	0	0	0	0	0	0	0	0	0	0	0	0	0	0	0	0	0	0	0	0	0	0	0	0	0	0	0	0	0	0	0	0	0	0	0	0	0	0	0	0	0	0	0	0	0	0	0	0	0	0	0	0	0	0
SGB15277	0.00318	0	0	0	0	0.00639	0.00555	0	0.00779	0	0.00831	0	0.00049	0	0.00044	0	9.00E-05	0	0.00141	0	0.00078	0	0.00011	0	0.00366	0	0	0	0	0	0	0	0	0	0	0	0	0	0	0	0	0	0	0	0	0	0	0	0	0	1.00E-05	0	0.00523	0	0.00031	0	0	0	0.00077	0	0.00447	0	0.0016	0	0.00096	0	0	0	0	0	0	0	0	0	0
SGB6550	0.0031	0	0.00044	0	0	0.01165	0.00389	0	0.0112	0	0.00997	0	0.00221	0	0.00368	0	0	0	0.00064	0	0.00083	0	0.00164	0	0.00091	0	0	0	0	0	0	0	0	0	0	0	0	0.00089	0	0.00194	0	0	0	0	0.00282	0.00216	0.00604	0	0	0	0.00202	0	0.00224	0	0	0	0	0	0.00055	0	0.02436	0	0.00119	0	0.00032	0	0	0	0	0.00043	0	0	0	0	0
SGB1855_group	0.00306	0	0.01189	0	0	0	0	0	0	0	0	0	0.002	0	0.0023	0	0.00211	0	0.0017	0	0.00137	0	0	0	0.0076	0	0	0	0	0	0	0	0	0	0	0	0	0	0	0	0	0	0	0	0	0	0	0	0	0	0	0	0.01692	0	0.00052	0	0	0	0.00177	0	0.00305	0	0.00174	0	0.00116	0	0	0	0	0	0	0.00261	0.00576	0	0
SGB54317	0.003	0	0	0	0	0.01074	0	0	0.0013	0	0.00109	0	0.00127	0	0.00262	0	0.00021	0	0.0052	0	0.00375	0	0	0	0.00413	0	0	0	0	0	0	0	0	0	0	0	0	0	0	0	0	0	0	0	0	0	0	0	0	0	0	0	0	0	0.00145	0	0	0	0.00108	0	0.00428	0	0.00237	0	0.00373	0	0	0	0	0	0.00018	0.00134	0	0	0
SGB5193	0.00298	0	0	0	0	0.00359	0.00195	0	0.00791	0	0.01069	0	0	0	0.00232	0	0	0	0.00405	0	0	0	0.00039	0	0.00748	0	0	0	0	0	0	0	0	0	0	0	0	0	0	0	0	0	0	0	0	0	0	0	0	0	0	0	0.00401	0	0	0	0	0	0.00257	0	0.01456	0	0.00127	0	0	0	0	0	0	0	0	0	0.00463	0	0
SGB4673	0.00295	0	0	0	0	0.01247	0	0	6.00E-05	0	0.00011	0	0	0	0	0	0	0	0.00157	0	0	0	0.00199	0	0.00088	0	0	0	0	0	0	0	0	0	0.00425	0	0	0	0	0	0	0	0	0	0	0	0	0	0	0	0	0	0.02119	0	0	0	0	0	0	0	0.00143	0	0.00079	0	0.00029	0	0	0	0	0	0	0.00138	0	0	0
SGB14955	0.00294	0	0	0	0	0.00892	0.00113	0	0.00242	0	0.00461	0	0	0	0	0	0	0	0.00081	0	0	0	0	0	0	0	0	0	0	0	0	0	0	0.00117	0	0	0	0	0	0	0	0	0	0	0	0	0	0	0	0	0	0	0.00978	0	0.00016	0	0	0	0.00086	0	0.00162	0	0.00242	0	0.00113	0	0	0	0	0	0	0	0	0	0
SGB16633	0.0029	0	0.00011	0	0	0.00076	0.00597	0	0.00492	0	0.00062	0	0.00021	0	0	0	0	0	0	0	0.00018	0	0	0	0	0	0	0	0	0	0	0.00034	0.00032	0	0	0	0	0.00106	0	0.00658	0	0	0	0	0	0	0	0	0	0	1.00E-05	0	0	0	0.00025	0.00754	0	0	0.00025	0	0	0	0	0	5.00E-05	0	0	0	0	0	0	0	0	0	0
SGB59892	0.00286	0	3.00E-05	0	0	0.01679	0.00715	0	0.02062	0	0.01455	0	0.00675	0	0.00577	0	0.00131	0	0.00841	0	0.00699	0	0.00206	0	0.01329	0	0	0	0	0	0	0	0	0	0	0	0	0	0	0.00104	0	0	0	0	0	0.00075	0.00304	0	0	0	7.00E-05	0	0.06718	0	0.0032	0	0.00081	0	0.00321	0	0.01027	0	0.00689	0	0.00592	0	0	0	0	0.00107	0.00626	0.00701	0.00036	0	0
SGB14998	0.00285	0	0	0	0	0.00307	0	0	0.00085	0	0.00071	0	0.00743	0	0.00339	0	0.00094	0	0.00502	0	0.00794	0	0.00062	0	0.0129	0	0	0	0	0	0	0	0	0	0	0	0	0	0	0	0	0	0	0	0	0	0	0	0	0	0	0	0.01763	0	0.00317	0	0.00077	0	0.00311	0	0.01983	0	0.00629	0	0.0072	0	0	0	0	0.00043	0.00011	0.00172	0.00687	0	0
SGB17264	0.00282	0	0	0	0	0.00711	0.00234	0	0.00426	0	0.0008	0	0	0	0.00463	0	0.00262	0	0.0136	0	0.02024	0	0.00929	0	0.00048	0	0	0	0	0	0	0	0	0	0	0	0	0	0	0.00036	0	0	0	0	0	0	0	0	0	0	0.00031	0	0	0	0.00229	0	0.00681	0	0	0	0	0	0.00025	0	0.00085	0	0	0	0	0	0	0	0	0	0
SGB12531	0.0028	0	0.01976	0	0	0.00184	0	0	0.0065	0	0.00051	0	0.00431	0	0	0	0	0.01888	0	0	0	0	0	0	0	0	0.00482	0	0	0	0	0	0	0	0	0	0	0.00029	0.02044	0	0	0	0	0	0.00231	0.0011	0.00238	0	0	0	0.0086	0	0	0	0	0.02532	0	0	0.00037	0.00313	0	0	0	0	0	0	0	0	0	0	0	0	0.11261	0.30257	0.18456
SGB4027	0.00276	0	4.00E-05	0	0	0.0016	0	0	0.00041	0	0.00202	0	0	0	0	0	0	0	0.00155	0	0	0	0	0	0.00082	0	0	0	0	0	0	0	0	0	0	0	0	0	0	0	0	0	0	0	0	0	0	0	0	0	0	0	0	0	0.00011	0	0	0	0.00035	0	0.00379	0	0.00114	0	0.00058	0	0	0	0	0	0.00033	0.00107	0.00472	0	0
SGB8334	0.00272	0	0.00146	0	0	0	0	0	0	0	4.00E-05	0	0	0	0	0	0	0	0	0	0	0	0	0	0	0	0.00885	0	0	0	0	0.00098	0.00033	0.00416	0.00043	0.00048	0	0	0	0	0	0	0	0	0	0	0	0	0	0	0.00097	0	0	0	0	0	0	0	0	0	0	0	0	0	0	0	0	0	0	0	0	0	0	0	0
SGB87508	0.00266	0	0	0	0	0.00222	0	0	0.00076	0	0	0	0	0	0	0	0	0	0	0	0	0	0	0	0	0	0.00174	0	0	0	0	0.00162	0.00262	0.00152	0.00028	0.00117	0	0.00291	0.06058	0.01982	0	0	0	0	0.0037	0.00226	0.00372	0	0	0	0.02599	0	0	0	0	0	0	0	0	0	0	0	0	0	0	0	0	0	0	0	0	0	0	0	0
SGB15402	0.00252	0	0	0	0	0.00617	0.00369	0	0.00207	0	0.00863	0	0.00024	0	8.00E-05	0	0	0	0.00105	0	0	0	0	0	0.00131	0	0	0	0	0	0	0	0	0	0	0	0	0	0	0	0	0	0	0	0	0	0	0	0	0	0	0	0.0306	0	0.00209	0	0	0	0.00179	0	0.00178	0	0.00225	0	0.00201	0	0	0	0	0	0	0	0	0	0
SGB7085	0.00252	0	0	0	0	0.00665	0.0015	0	0.00707	0	0.00251	0	0.00166	0	0.00301	0	0.0024	0	0.00671	0	0.00741	0	0.00474	0	0.00638	0	0	0	0	0	0	0	0	0	0	0	0	0	0	0	0	0	0	0	0	0	0.00022	0	0	0	0.00409	0	0	0	0	0.00041	8.00E-05	0	0.00151	0	0.00464	0	0.00156	0	0.00189	0	0	0	0	0.00119	0.00196	0	0	0	0
SGB7847_group	0.00244	0	0.14239	0	0	0.07951	0	0	0	0	0.00122	0	0	0	0.02443	0	0	0	0	0	0	0	0.00068	0	0	0	0	0	0	0	0	0	0	0	0.01946	0	0	0	0.01657	0	0	0	0	0	0	0	0	0	0	0	0	0	0	0	0	0.00047	0.18084	0	0	0	0	0	0.00143	0	0	0	0.00301	0.0006	0	0	0	0	0.02999	0.03797	0.04703
SGB37624	0.00236	0	0.00011	0	0	0.00226	0	0	0	0	2.00E-05	0	0.00094	0	0.0023	0	0	0	0.00146	0	0.00286	0	0	0	0.00737	0	0	0	0	0	0	0	0	0	0	0	0	0	0	0	0	0	0	0	0	0	0	0	0	0	0	0	0.01044	0	0.00134	0	0	0	0.00081	0	0.00659	0	0.00534	0	0.00245	0	0	0	0	0.00054	0.00345	0.0083	0	0	0
SGB15121	0.00222	0	0	0	0	0.00148	0.00068	0	0.00216	0	0.00131	0	0.00298	0	0.0044	0	0.00061	0	0.00937	0	0.00492	0	0.00072	0	0.01159	0	0	0	0	0	0	0	0	0	0	0	0	0	0	0	0	0	0	0	0	0	0	0	0	0	0	0	0.0459	0	0.00176	0	0.00025	0	0.00164	0	0.01374	0	0.00549	0	0.00276	0	0	0	0	0	0	0.00054	0	0	0
SGB9347	0.00219	0	4.00E-05	0	0	0.00306	0	0	0.00116	0	0.00085	0	0.00077	0	0.00222	0	0	0	0.00099	0	0.00041	0	0	0	0	0	0	0	0	0	0	0	0	0	0	0	0	0	0	0	0	0	0	0	0	0	0	0	0	0	0	0	0	0	0	0	0	0	0.00141	0	0.0012	0	0.00285	0	0.00318	0	0	0	0	0	0.00031	0.00391	0.0202	0	0
SGB6767	0.00215	0	0	0	0	0.00429	0.00181	0	0.00186	0	0.01137	0	0.00073	0	0.00032	0	0.0005	0	0.00227	0	0.00111	0	0.00057	0	0.00385	0	0	0	0	0	0	0	0	0	0	0	0	0	0	0	0	0	0	0	0	0	0	0	0	0	0	0	0.00552	0	0	0	0.00029	0	0.00122	0	0.00445	0	0.00044	0	0.00082	0	0	0	0	0.00105	8.00E-05	0.0018	0.00297	0	0
SGB1965	0.00213	0	0.00841	0	0	0	0	0	0	0	0	0	0.00343	0	0.00258	0	0	0	0.00778	0	0.00746	0	0	0	0.02928	0	0	0	0	0	0	0	0	0	0	0	0	0	0	0	0	0	0	0	0	0	0	0	0	0	0	0	0.00105	0	0.00388	0	0	0	0.00544	0	0.01959	0	0.00157	0	0.00026	0	0	0	0	0.00436	0.00662	0.02791	0	0	0
SGB14307	0.00211	0	0	0	0	0.00534	0.00046	0	0.00314	0	0.00572	0	0	0	0.00126	0	0	0	0.0012	0	0	0	0.00067	0	0.00033	0	0	0	0	0	0	0	0	0	0	0	0	0	0	0	0	0	0	0	0	0	0	0	0	0	0	0	0.0697	0	0	0	0	0	0.00231	0	0.00313	0	0.00318	0	0.00132	0	0	0	0	0	0.00272	0.00075	0	0	0
SGB1935	0.00206	0	0	0	0	0	0	0	0	0	0	0	0	0	0	0	0.00016	0	3.00E-05	0	0	0	0	0	0.00038	0	0	0	0	0	0	0	0	0	0	0	0	0	0	0	0	0	0	0	0	0	0	0	0	0	0	0	0.0127	0	0.00048	0	0	0	0.00041	0	0.00047	0	0.00045	0	0.00027	0	0	0	0	0	0.00035	0.00353	0.00039	0	0
SGB3962	0.00205	0	0	0	0	0.00192	0	0	0.00061	0	0	0	0	0	0	0	0	0	0.00016	0	0	0	0	0	0	0	0	0	0	0	0	0	0	0	0	0	0	0	0	0	0	0	0	0	0	0	0	0	0	0	0	0	0.00444	0	0	0	0	0	0	0	0.00145	0	0	0	0	0	0	0	0	0	0	0	0	0	0
SGB9342_group	0.00203	0	0	0	0	0	0	0	0	0	0	0	0	0	0	0	0	0	0	0	0	0	0	0	0	0	0	0	0	0	0	0	0	0	0	0	0	0	0	0	0	0	0	0	0	0	0	0	0	0	0	0	0.01977	0	0	0	0	0	0.00166	0	0.00093	0	0	0	0	0	0	0	0	0	0	0.00019	0	0	0
SGB15134	0.00201	0	0	0	0	0.00993	0.00896	0	0.01308	0	0.00516	0	0.00882	0	0.00618	0	0.00202	0	0.00979	0	0.012	0	0.00139	0	0.01257	0	0	0	0	0	0	0	0	0	0	0	0	0	0	0	0	0	0	0	0	0	0	0	0	0	0	0	0.05869	0	0.00324	0	0.00144	0	0.00278	0	0.02779	0	0.00646	0	0.00851	0	0	0	0	0	0	0.00044	0	0	0
SGB34830	0.00197	0	0.00137	0	0	0.00168	0.00133	0	0.0016	0	0.00173	0	0.00042	0	0.00035	0	0.00049	0	0	0	0	0	0.00029	0	0	0	0.00035	0	0	0	0	0.00038	0.00071	0.00067	0	0	0	0.00078	0.00045	0.00048	0	0	0	0	6.00E-05	0	0.00025	0	0	0	0.00067	0	0	0	0.00034	0.0007	0.00115	0	0.0003	0	0	0	0.00015	0	8.00E-05	0	0	0	0	0	0	0	0	0	0
SGB7257	0.00196	0	0	0	0	0.00526	0	0	0.0005	0	4.00E-05	0	0.00305	0	0.00437	0	0.00057	0	0.00613	0	0.00502	0	5.00E-05	0	0.01418	0	0	0	0	0	0	0	0	0	0	0	0	0	0	0	0	0	0	0	0	0	0	0	0	0	0	0	0.03618	0	0.00369	0	0	0	0.00272	0	0.02055	0	0.00627	0	0.00356	0	0	0	0	0.00028	0.00576	0.00317	0	0	0
SGB29302	0.00193	0	0	0	0	0.00036	0	0	0	0	0	0	0	0	0.00076	0	0	0	0.00028	0	3.00E-05	0	0	0	0.00145	0	0	0	0	0	0	0	0	0	0	0	0	0	0	0	0	0	0	0	0	0	0	0	0	0	0	0	8.00E-05	0	0	0	0	0	0.00059	0	0.00233	0	0.0011	0	0.00051	0	0	0	0	0	0	0	0	0	0
SGB4623	0.00191	0	0	0	0	0.00104	0.0003	0	0.00058	0	0	0	0.00194	0	0.001	0	0.00078	0	0.00268	0	0.00538	0	0.00011	0	0.00471	0	0	0	0	0	0	0	0	0	0	0	0	0	0	0	0	0	0	0	0	0	0	0	0	0	0	0	0.0113	0	0.0004	0	0.00026	0	0.00117	0	0.03253	0	0.00339	0	0.0014	0	0	0	0	0	0	0.00043	0	0	0
SGB63163	0.00191	0	0	0	0	0.00163	0.00147	0	0.0007	0	0.0019	0	0.00071	0	0.00032	0	9.00E-05	0	0.00167	0	0.00105	0	0	0	0.00175	0	0	0	0	0	0	0	0	0	0	0	0	0	0	0	0	0	0	0	0	0	0	0	0	0	0	0	0.00023	0	0.00092	0	0	0	0.00078	0	0.00482	0	0.00126	0	0.00178	0	0	0	0	0	0	0	0	0	0
SGB72777	0.0019	0	0	0	0	0.0021	0.00392	0	0.00536	0	0.00645	0	0.00228	0	0.00201	0	0.00017	0	0.00573	0	0.00475	0	0.00128	0	0.00554	0	0	0	0	0	0	0	0	0	0	0	0	0	0	0	0	0	0	0	0	0	0	0	0	0	0	0	0.02535	0	0.0007	0	0	0	0.00132	0	0.00514	0	0.00218	0	0.00355	0	0	0	0	0	0	0.00018	0.0027	0	0
SGB15452	0.00189	0	0	0	0	0	0	0	0	0	0	0	0	0	0.00211	0	0	0	0.00154	0	0.00079	0	0	0	0.00309	0	0	0	0	0	0	0	0	0	0	0	0	0	0	0	0	0	0	0	0	0	0	0	0	0	0	0	0.00399	0	0	0	0	0	0.00036	0	0.00922	0	0.00118	0	0.00106	0	0	0	0	0	0	0	0	0	0
SGB63305	0.00189	0	0.00118	0	0	0	0	0	0	0	0	0	0.00856	0	0.00706	0	0.00273	0	0.00874	0	0.00945	0	0.00207	0	0.01181	0	0	0	0	0	0	0	0	0	0	0	0	0	0	0	0	0	0	0	0	0	0	0	0	0	0	0	0.00872	0	0.00541	0	0.00429	0	0.00345	0	0.01438	0	0.00439	0	0.0152	0	0	0	0	0	0.00016	0.00017	0.00073	0	0
SGB63311	0.00189	0	0	0	0	0.01159	0.00676	0	0.00312	0	0.00158	0	0.01183	0	0.00661	0	0.00183	0	0.0122	0	0.00667	0	0.00322	0	0.01207	0	0	0	0	0	0	0	0	0	0	0	0	0	0	0.00022	0	0	0	0	0	0	0	0	0	0	0.00021	0	0.0098	0	0.00405	0	0.00242	0	0.0033	0	0.00796	0	0.00838	0	0.0081	0	0	0	0	0	0.00013	0.00026	0	0	0
SGB16045	0.00187	0	0.00571	0	0	0.00619	0.00197	0	0.00628	0	0.00017	0	0.00043	0	0	0	7.00E-05	0	0	0	0	0	0	0	0	0	0.00499	0	0	0	0	0.00977	0.01004	0.00794	0.0008	0.00291	0.0016	0.00663	0	0.02998	0	0	0	0	0.00755	0.00618	0.0067	0	0	0	0.01277	0	0	0	0	0	0.00035	0	0	0	0	0	0	0	0	0	0	0	0	0	0	0	0	0	0
SGB15211	0.00183	0	0	0	0	0.00307	0.00203	0	0.00296	0	0.00142	0	0.0001	0	0.00014	0	0	0	0.00075	0	0.00048	0	0	0	0	0	0	0	0	0	0	0	0	0	0	0	0	0	0	0	0	0	0	0	0	0	0	0	0	0	0	0	0.00884	0	0	0	0	0	0	0	0.01134	0	0.00041	0	0	0	0	0	0	0	0	0	0	0	0
SGB53794	0.00179	0	0	0	0	0.0097	0.00405	0	0.00766	0	0.00731	0	0.00104	0	0.00024	0	0	0	0.00389	0	0.00191	0	0	0	0.00192	0	0	0	0	0	0	0	0	0	0	0	0	0	0	0	0	0	0	0	0	0	0	0	0	0	0	0	0.06127	0	0.00049	0	0	0	0.00168	0	0.00347	0	0.008	0	0.00295	0	0	0	0	0	0	0	0	0	0
SGB15389	0.00178	0	0	0	0	0.00246	0	0	0.00022	0	0.00291	0	0	0	0.00113	0	0	0	0.00059	0	0.00055	0	6.00E-05	0	0	0	0	0	0	0	0	0	0	0	0	0	0	0	0	0	0	0	0	0	0	0	0	0	0	0	0	0	0.03874	0	0	0	0	0	0.0016	0	0.00011	0	0.0023	0	0.00069	0	0	0	0	0	0	0	0	0	0
SGB4135	0.00177	0	0	0	0	0.00111	0.00243	0	0.00304	0	0.00569	0	0	0	0	0	0	0	0	0	0	0	0	0	0	0	0	0	0	0	0	0	0	0	0	0	0	0	0	0	0	0	0	0	0	0	0.00099	0	0	0	0	0	0.00029	0	0	0	0	0	0	0	0.00048	0	0	0	0	0	0	0	0	0	0	0	0	0	0
SGB4026	0.00171	0	0.00182	0	0	0	0	0	0	0	0	0	0	0	0.004	0	0	0	0.00111	0	0.00044	0	0	0	0.00193	0	0	0	0	0	0	0	0	0	0	0	0	0	0	0	0	0	0	0	0	0	0	0	0	0	0	0	0.02073	0	0.00054	0	0	0	0.00181	0	0.01016	0	0.00132	0	0.00188	0	0	0	0	0.00015	0.00152	0.00216	0.00169	0	0
SGB1957	0.00169	0	0	0	0	0.00237	0	0	0	0	0	0	0	0	0.00013	0	0	0	0.00327	0	0.00181	0	0	0	0.00853	0	0	0	0	0	0	0	0	0	0	0	0	0	0	0	0	0	0	0	0	0	0	0	0	0	0	0	0	0	0.00123	0	0	0	0.00032	0	0.01982	0	0	0	0.00147	0	0	0	0	0	0	0.00163	0	0	0
SGB63309	0.00168	0	0	0	0	0.00209	0.0025	0	0.00096	0	0.00154	0	0.00162	0	0.0009	0	0.00016	0	0.0016	0	0.00031	0	0.00011	0	0.00071	0	0	0	0	0	0	0	0	0	0	0	0	0	0	0	0	0	0	0	0	0	0	0	0	0	0	0	0.00024	0	0	0	0.00147	0	0.00042	0	0.00146	0	0.00169	0	0.00109	0	0	0	0	0	0.0001	0	0	0	0
SGB5196	0.00158	0	0.00023	0	0	0.01308	0.00765	0	0.03611	0	0.04315	0	0.00011	0	0.00038	0	0	0	0.00099	0	0.00112	0	1.00E-05	0	0.00354	0	0	0	0	0	0	0	0	0	0	0	0	0.00043	0	0.00639	0	0	0	0	0.00307	0.00461	0.01056	0	0	0	0	0	0	0	0.00097	0	0.00047	0	0.00084	0	0.01113	0	0.00128	0	0.00116	0	0	0	0	0.00055	0.00155	0.01073	0	0	0
SGB82765	0.00157	0	0.00205	0	0	4.00E-05	0.0005	0	0.00012	0	0.00044	0	0	0	0.00022	0	3.00E-05	0	0	0	0	0	0.00079	0	0.0001	0	0.00209	0	0	0	0	0.00033	0.00049	0.00033	0	0	0	0.00034	0.0003	0	0	0	0	0	4.00E-05	0.00012	0	0	0	0.00031	0	0	0	0	0	0	0	0	0	0	0	0	0.00012	0	0	0	0	0	0	0	0	0	0.00373	0.0007	0
SGB14912	0.00155	0	0	0	0	0.00051	0.0009	0	0.0046	0	0.00341	0	0	0	0	0	0	0	0.00056	0	0	0	0	0	0.0004	0	0	0	0	0	0	0	0	0	0	0	0	0	0	0	0	0	0	0	0	0	0	0	0	0	0	0	0.00812	0	0	0	0	0	0.00043	0	0.0079	0	0.00106	0	0.00055	0	0	0	0	0	0	0.00054	0	0	0
SGB3991	0.00151	0	0	0	0	0.00261	0	0	0.00122	0	0.00093	0	0	0	0	0	0	0	0.00017	0	0	0	0	0	0.0016	0	0	0	0	0	0	0	0	0	0	0	0	0	0	0	0	0	0	0	0	0	0	0	0	0	0	0	0.00344	0	0	0	0	0	0	0	0.00292	0	0.0007	0	0.00035	0	0	0	0	0	0	0	0	0	0
SGB6566	0.00149	0	0	0	0	0.00379	7.00E-05	0	0.00044	0	0.00221	0	0.00017	0	0.00111	0	0.00063	0	0.00138	0	0.00057	0	0	0	0.0021	0	0	0	0	0	0	0	0	0	0	0	0	0	0	0	0	0	0	0	0	0	0	0	0	0	0	0	0.00028	0	0	0	0	0	0.00032	0	0.00728	0	0.00152	0	0.00048	0	0	0	0	0	0.0007	0.00294	0	0	0
SGB4682	0.00148	0	0	0	0	0.00206	0	0	0.00042	0	0.00044	0	0.00174	0	0.00162	0	0.00056	0	0.00341	0	0.00277	0	0.00024	0	0.00951	0	0	0	0	0	0	0	0	0	0	0	0	0	0	0	0	0	0	0	0	0	0	0	0	0	0	0	0	0	0.00227	0	0	0	0.00133	0	0.00875	0	0.00192	0	0.00398	0	0	0	0	0	0	0	0	0	0
SGB15276	0.00144	0	0	0	0	0.00207	0.00172	0	0.0049	0	0.00373	0	0.004	0	0.00284	0	0.00098	0	0.00484	0	0.00395	0	0.00063	0	0.00783	0	0	0	0	0	0	0	0	0	0	0	0	0	0	0	0	0	0	0	0	0	0	0	0	0	0	0	0.00316	0	0.00394	0	0.00149	0	0.00334	0	0.00901	0	0.00475	0	0.0037	0	0	0	0	0	0.00169	0.0044	0	0	0
SGB59507	0.00144	0	0	0	0	0.00119	0.00039	0	0.00191	0	0.00105	0	0.0013	0	0.00162	0	0	0	0.00529	0	0.0012	0	0.00089	0	0.0064	0	0	0	0	0	0	0	0	0	0	0	0	0	0	0	0	0	0	0	0	0	0	0	0	0	0	0	0	0	0.00023	0	0	0	0.00046	0	0.00558	0	0.00173	0	0.00089	0	0	0	0	0	0	0.00018	0	0	0
SGB8592	0.00138	0	0.00019	0	0	0.003	0	0	0	0	0.00085	0	0.0019	0	0	0	0	0	0.00049	0	0	0	0	0	0	0	0	0	0	0	0	0	0	0	0	0	0	0	0	0	0	0	0	0	0	0	0	0	0	0	0	0	0	0	0.00066	0	0	0	0.00071	0	0.04003	0	0.00802	0	0.00216	0	0	0	0	0.00069	0.00222	0.00636	0	0	0
SGB14795	0.00137	0	0	0	0	0.00187	0	0	0	0	0	0	0	0	0	0	0	0	0	0	0	0	0	0	0	0	0	0	0	0	0	0	0	0	0	0	0	0	0	0	0	0	0	0	0	0	0	0	0	0	0	0	0	0	0	0	0	0	0	0	0	0	0	0	0	0	0	0.00047	0	0	0	0	0	0	0
SGB89008	0.00136	0	0.00705	0	0	0	0	0	0	0	0	0	0.00059	0	0	0	0	0	0	0	0	0	0	0	0	0	0	0	0	0	0	0	0	0	0	0	0	0	0	0	0	0	0	0	0	0	0	0	0	0	0	0	0	0	0	0	0	0	0.00057	0	0	0	0	0	0	0	0	0	0	0	0	0	0	0	0
SGB15401	0.00135	0	0	0	0	0.00344	0	0	0.00013	0	0.00148	0	0	0	0.0001	0	0	0	0.0012	0	0.00021	0	0	0	0.00133	0	0	0	0	0	0	0	0	0	0	0	0	0	0	0	0	0	0	0	0	0	0	0	0	0	0	0	0.01638	0	0.00027	0	0	0	0.00059	0	0.001	0	0.00198	0	0.00226	0	0	0	0	0	0	0	0	0	0
SGB1934	0.00135	0	0.00172	0	0	0.00064	0	0	0	0	0	0	0.00032	0	0.00016	0	0	0	0.00213	0	0.00306	0	0	0	0.00373	0	0	0	0	0	0	0	0	0	0	0	0	0	0	0	0	0	0	0	0	0	0	0	0	0	0	0	0.03028	0	0	0	0	0	0.00107	0	0.00517	0	0.00136	0	5.00E-05	0	0	0.00979	0	0.00052	0.00119	0.00253	0.00099	0	0
SGB4271	0.00135	0	0.01052	0	0	0.00368	0	0	0	0	0.0012	0	0.00063	0	0.00047	0	0.0001	0	0.00169	0	0	0	0	0	0.00139	0	0	0	0	0	0	0	0	0	0	0	0	0	0	0	0	0	0	0	0	0	0	0	0	0	0	0	0.00631	0	0	0	0	0	0.00069	0	0.00372	0	0.00017	0	0.00068	0	0	0	0	0.00025	0	0.00301	0.00405	0	0
SGB15076	0.00133	0	0	0	0	0.00282	0.00184	0	0.00712	0	0.00191	0	0.00158	0	0.00258	0	0.00066	0	0.00332	0	0.00351	0	0	0	0.00477	0	0	0	0	0	0	0	0	0	0	0	0	0	0	0	0	0	0	0	0	0	0	0	0	0	0	0	0.00612	0	0.00057	0	0	0	0.00127	0	0.00782	0	0.00288	0	0.00225	0	0	0	0	0	0	0	0	0	0
SGB4687	0.00132	0	0	0	0	0.01774	0.00693	0	0.02165	0	0.01456	0	0.00516	0	0.00645	0	0.00144	0	0.00712	0	0.00751	0	0.00136	0	0.01728	0	0	0	0	0	0	0	0	0	0	0	0	0	0	0.00085	0	0	0	0	0	0	0	0	0	0	0	0	0.0106	0	0.0033	0	0.00016	0	0.00447	0	0.01913	0	0.01019	0	0.00493	0	0	0	0	0.00194	0.00847	0.01153	0.00185	0	0
SGB34904	0.00127	0	0.00343	0	0	0.00445	0	0	0.00019	0	0	0	0	0	0	0	0	0	0	0	0	0	0	0	0	0	7.00E-05	0	0	0	0	0	0.00029	0	0.00093	0	0	0	0	0.00173	0	0	0	0	0	0	0	0	0	0	0.00318	0	0	0	0	0.00261	0.00101	0	0	0	0	0	0	0	0	0	0	0	0	0	0	0	0	0	0
SGB6497	0.00127	0	0	0	0	0.00035	0	0	0	0	0.00016	0	0	0	0	0	0	0	0.00028	0	0	0	0	0	0.00069	0	0	0	0	0	0	0	0	0	0	0	0	0	0	0	0	0	0	0	0	0	0	0	0	0	0	0	0.00277	0	0	0	0	0	0.00024	0	0.00057	0	0.00012	0	4.00E-05	0	0	0	0	0	0	0	0	0	0
SGB14958	0.00126	0	0	0	0	0.00187	0.00055	0	0.00034	0	0.00177	0	0	0	0	0	0	0	0	0	0	0	0	0	0	0	0	0	0	0	0	0	0	0	0	0	0	0	0	0	0	0	0	0	0	0	0	0	0	0	0	0	0.00396	0	0	0	0	0	0	0	0	0	0.00035	0	0	0	0	0	0	0	0	0	0	0	0
SGB16649	0.00125	0	0.00137	0	0	0.0008	0.00139	0	0.00138	0	0.00094	0	0	0	0	0	2.00E-05	0	0	0	0	0	0	0	0	0	0.0001	0	0	0	0	0.00179	0.00138	0.00148	0	0	0	0.0005	0	0.00036	0	0	0	0	0.00106	0.00066	0.00093	0	0	0	0.00043	0	0	0	8.00E-05	0.00086	0.00015	0	5.00E-05	0	0	0	0	0	0	0	0	0	0	0	0	0	0	0	0
SGB14365	0.00124	0	0	0	0	0.00228	0.0063	0	0.00482	0	0.00553	0	0	0	0	0	0	0	0	0	0	0	0	0	0	0	0	0	0	0	0	0	0	0	0	0	0	0	0	0.00051	0	0	0	0	0	0	0	0	0	0	0	0	0	0	0	0	0	0	0	0	0	0	0	0	0	0	0	0	0	0	0	0	0	0	0
SGB59451	0.00124	0	0	0	0	0.00664	0.00125	0	0.00213	0	0.00256	0	0	0	0.00037	0	0	0	0.00063	0	0.0003	0	0	0	0.00187	0	0	0	0	0	0	0	0	0	0	0	0	0	0	0	0	0	0	0	0	0	0	0	0	0	0	0	0	0	0	0	0	0	0.00039	0	0.00427	0	0.00101	0	0.00057	0	0	0	0	0	0	0.00045	0	0	0
SGB87477	0.00124	0	0.00145	0	0	0.0078	0.00446	0	0.0178	0	0.00487	0	5.00E-05	0	0	0	0	0	0	0	0	0	0	0	0	0	0.00067	0	0	0	0	0.00101	0.00177	0.00133	0	0	0	0.00274	0.00046	0.02081	0	0	0	0	0.00596	0.00262	0.00501	0	0	0	0.00314	0	0	0	0	0.02146	0.00048	0	3.00E-05	0	0	0	0	0.00022	0	0	0	0	0	0	0	0	0	0	0
SGB16630	0.00122	0	0	0	0	0	0	0	0	0	0	0	0	0	0.00024	0	0	0	0	0	0	0	0.01413	0	0.01087	0	0	0	0	0	0	0	0	0	0	0	0	0	0.16074	0	0	0	0	0	0	0	0	0	0	0	0	0	0	0	0	0	0.00973	0	0	0	0	0	0	0	0.0009	0	0	0	0	0	0	0	0	0	0
SGB24956	0.00119	0.00044	0.00434	0	0	0.03403	0.0243	0	0.0316	0	0.28901	8.00E-05	0.29655	0	0.19536	0	0.05225	0	1.12116	0.02789	0.43477	0	0.25299	0.03976	0.37678	0	0	0	0	0	0	0	0	0	0	0	0	0.01552	0	0.02414	0	0	0	0	0.00202	0.00204	0.00322	0	0	0	0.00218	0	0	0.00352	0.36215	0.35831	0.0583	0	0.43053	0.04909	0.48557	0.00462	1.31836	0.11755	0.28757	0	29.11434	0.7661	1.17546	0.95306	1.05722	1.10021	0.31248	0.26691	0.27276
SGB64987	0.00119	0	0	0	0	0.00153	0	0	0	0	0.00012	0	0.00084	0	0.00174	0	0	0	0.00155	0	0.00392	0	0	0	0.00909	0	0	0	0	0	0	0	0	0	0	0	0	0	0	0	0	0	0	0	0	0	0	0	0	0	0	0	0.00501	0	0.00128	0	0	0	0.00113	0	0.00595	0	0.00276	0	0.00157	0	0	0	0	0	0.00117	0.00204	0	0	0
SGB4776	0.00118	0	0	0	0	0.00255	0.00026	0	0.00135	0	0.00402	0	0	0	0	0	0	0	0.00124	0	0	0	0	0	0.00074	0	0	0	0	0	0	0	0	0	0	0	0	0	0	0	0	0	0	0	0	0	0	0	0	0	0	0	0.03506	0	0	0	0	0	0	0	0.00065	0	0.00218	0	0.00019	0	0	0	0	0	0	0	0	0	0
SGB15135	0.00115	0	0.0001	0	0	0.00096	0.00273	0	0.00532	0	0.00512	0	0.00017	0	0	0	0	0	0.00045	0	0	0	0	0	0.00067	0	0	0	0	0	0	0	0	0	0	0	0	0	0	0	0	0	0	0	0	0	0	0	0	0	0	0	0.01453	0	0	0	0	0	0	0	0.00188	0	0.00028	0	7.00E-05	0	0	0	0	0	0	0.00026	0	0	0
SGB14974	0.00113	0	0.00041	0	0	0.00053	0.00027	0	0.00196	0	0.00078	0	0	0	0.00076	0	7.00E-05	0	0.00113	0	0.00091	0	0	0	0.00284	0	0	0	0	0	0	0	0	0	0	0	0	0	0	0	0	0	0	0	0	0	0	0	0	0	0	0	0.00258	0	0.00025	0	0	0	0.00012	0	0.00383	0	0.00054	0	0.00086	0	0	0	0	0	0	0	0	0	0
SGB14922	0.00112	0	0.00142	0	0	0	0	0	0	0	0	0	0.00363	0	0.00475	0	0.00206	0	0.01096	0	0.00375	0	0.00031	0	0.0096	0	0	0	0	0	0	0	0	0	0	0	0	0	0	0	0	0	0	0	0	0	0	0	0	0	0	0	0.00746	0	0.00299	0	0.00171	0	0.0024	0	0.03696	0	0.00951	0	0.00596	0	0	0	0	0.00121	0.00379	0.00314	0	0	0
SGB34115	0.00111	0	0.00064	0	0	0.00198	0.00024	0	0.00113	0	0.00021	0.00787	0	0	0	0	0	0	0	0	0	0	0	0	0	0	0	0	0	0	0	0.00097	0.00125	0.00086	0	0.00109	0	0.00056	0.00222	0.00161	0	0	0	0	0.00037	0.0012	0.00074	0	0	0	0.00467	0	0	0	0	0	0	0	0	0	0	0	0	0	0	0	0	0	0	0	0	0	0	0	0
SGB34308	0.00111	0.00012	0.0018	0	0	0.00123	0.01736	0	0.00684	0	0.01258	0	0.00391	0	0.00373	0	0.00164	0	0.00017	0	0.00363	0	0.00184	0	0.00246	0	0.00113	0	0	0	0	0.00574	0.00719	0.00654	0	0.00084	0	0.00076	0.01355	0	0	0	0	0	0	0	0	0	0	0	0	0	0	0	0.00095	0	0	0	0.00456	0	0.00016	0	0.002	0	0.00311	0	0	0	0	0.00011	0.0008	0.00081	0	0	0
SGB16650	0.00109	0	0.00083	0	0	0.00057	0.00066	0	0.00082	0	0.00094	0	0	0	0	0	0	0	0	0	0	0	0	0	0	0	0	0	0	0	0	0.00049	0.00092	0.00024	0	0	0	0.00027	0.00074	0.00024	0	0	0	0	0.00025	0.0002	0.00057	0	0	0	0.00064	0	0	0	6.00E-05	0.00116	0.00021	0	3.00E-05	0	0	0	0	0	0	0	0	0	0	0	0	0	0	0	0
SGB6148	0.00108	0	0.00138	0	0	0.00057	0.00073	0	5.00E-05	0	0.00163	0	0	0	0	0	0	0	0	0	0	0	4.00E-05	0	0	0	0	0	0	0	0	0.00047	0	0	0	0	0	0.00039	0	0	0	0.00128	0.00073	0.00167	0	0	0.00034	0	0	0	0.00036	0	0	0	6.00E-05	0.00025	0	8.00E-05	0.0002	0	4.00E-05	0	0.00034	0.00017	7.00E-05	0	0.0117	0.12298	0.00632	0	0	0	0	0	0
SGB3969	0.001	0	0	0	0	0.00119	0	0	0.00022	0	0.00014	0	0	0	0	0	0	0	0	0	0	0	0	0	0.00022	0	0	0	0	0	0	0	0	0	0	0	0	0	0	0	0	0	0	0	0	0	0	0	0	0	0	0	0	0	0	0	0	0	0	0	0.00313	0	0	0	0	0	0	0	0	0	0	0	0	0	0
SGB10464	0.00099	0.02695	0	0	0	0.00031	0	0	0.00489	0	0.00241	0.01809	0	0	0	0	0	0	0	0	0	0	0	0	0	0	0	0	0	0	0	0	0	0	0.59066	0.09637	0.23078	0	0.00217	0.00114	0.0107	0.1371	1.34866	0.28528	0.05479	0.05682	0.06081	0	0	0	0.00434	0	0	0	0	0.61049	0	0	0	0.03883	0	0	0	0.00407	0.00012	0	0.2176	0.11521	0.20849	0	0	0	0.00295	0.01541	0.00882
SGB34099	0.00094	0	0.00077	0	0	0	0.00046	0	0.00147	0	0	0	0	0	0	0	1.00E-05	0	0	0	0	0	0	0	0	0	0.00528	0	0	0	0	0.007	0.00774	0.0061	0.00103	0.00322	0.00181	0.00837	0.00013	0.01176	0	0	0	0	0.00813	0.00937	0.00762	0.00465	0.006	0.00496	0.00294	0	0	0	0	0.00078	0	0	0	0	0	0	0	0	0	0	0	0	0	0	0	0	0	0	0
SGB14123	0.00093	0	0.00053	0	0	0	0	0	0	0	0	0	0	0	0	0	0	0	0	0	0	0	0	0	0	0	0	0	0	0	0	0	0	0	0	0	0	0	0	0	0	0	0	0	0	0	0	0	0	0	0	0	0	0	0	0	0	0	0	0	0	0	0	0	0	0	0	0	0	0	0	0	0	0	0
SGB6391	0.00093	0	0	0	0	0.00309	0	0	0.0009	0	0.00047	0	0	0	0	0	0	0	0	0	0	0	0	0	0	0	0	0	0	0	0	0	0	0	0	0	0	0	0	0	0	0	0	0	0	0	0	0	0	0	0	0	0	0	0	0	0	0	0	0	0.00413	0	0	0	0.0007	0	0	0	0	0	0	0	0	0	0
SGB7897	0.00093	0.00357	0.00522	0	0	0.01254	0	0	0.00056	0	0	0	0.01045	0	0.02564	0	0.01232	0	0.01191	0	0.02794	0	0.01096	0	0.02224	0	0	0	0	0	0	0	0	0	0	0	0	0	0	0	0	0	0	0	0	0	0	0	0	0	0	0	0	0	0.0187	0.03463	0.1777	0	0.01142	0.00779	0.02937	0	0.07761	0	0.00333	0	0.00364	0	0	0.01359	0.02223	0.00496	0	0	0
SGB4626	0.00089	0	0.00112	0	0	0	0	0	0	0	0	0	0.01254	0	0.01265	0	0.00439	0	0.01709	0	0.01577	0	0.00559	0	0.02757	0	0	0	0	0	0	0	0	0	0	0	0	0	0	0	0	0	0	0	0	0	0	0	0	0	0	0	0.05198	0	0.00867	0	0.0015	0	0.00478	0	0.03187	0	0.01054	0	0.01385	0	0	0	0	0.00919	0.01109	0.01605	0.03259	0	0
SGB2295	0.00084	0	0.02194	0	0	0	0	0	0	0	0	0	0	0	0.00042	0	0.00046	0	0.00035	0	0	0	0	0	0	0	0	0	0	0	0	0	0	0	0	0	0	0	0	0	0	0	0	0	0	0	0	0	0	0	0	0	0.01445	0	0	0	0	0	0	0	0	0	0	0	0.00093	0	0	0	0	0	0	0	0	0	0
SGB63333	0.00083	0	0	0	0	0.00366	0.00026	0	0.00236	0	0.0003	0	0.00165	0	0.00219	0	8.00E-05	0	0.00351	0	0.0033	0	0	0	0.00703	0	0	0	0	0	0	0	0	0	0	0	0	0	0	0	0	0	0	0	0	0	0	0	0	0	0	0	0.01625	0	0.0007	0	0	0	0.00087	0	0.007	0	0.00265	0	0.00181	0	0	0	0	0	0	0	0	0	0
SGB4604	0.0008	0	0	0	0	0.01262	0.00692	0	0.00394	0	0.00104	0	0.02151	0	0.01428	0	0.00581	0	0.01993	0	0.01926	0	0.01023	0	0.02613	0	0	0	0	0	0	0	0	0	0	0	0	0	0	0.00129	0	0	0	0	0	0	0	0	0	0	0	0	0	0	0.0019	0	0.00297	0	0.00242	0	0.01277	0	0.00444	0	0.00741	0	0	0	0	0.0018	0.00178	0.00453	0	0	0
SGB15163	0.00079	0	5.00E-05	0	0	0	0	0	0	0	0	0	0	0	0.00032	0	0	0	0.00024	0	0	0	0	0	0.00066	0	0	0	0	0	0	0	0	0	0	0	0	0	0	0	0	0	0	0	0	0	0	0	0	0	0	0	0	0	0	0	0	0	0	0	0.00118	0	0	0	8.00E-05	0	0	0	0	0	0	0	0	0	0
SGB1814	0.00078	0	0	0	0	0	0	0	0	0	0	0	0	0	0	0	0	0	0.00044	0	0	0	0	0	0	0	0	0	0	0	0	0	0	0	0	0	0	0	0	0	0	0.00348	0.00456	0	0	0	0	0	0	0	0	0	0.0027	0	0.00247	0	0.00034	0	0.00247	0	0.05047	0	0.00164	0	0	0	0	0	0	0.00461	0	0	0.01092	0	0
SGB15395	0.00077	0	0	0	0	0.00092	0.00021	0	0.00128	0	0.00062	0	0	0	0.00025	0	0	0	0.00061	0	0	0	0	0	0.00048	0	0	0	0	0	0	0	0	0	0	0	0	0	0	0	0	0	0	0	0	0	0	0	0	0	0	0	0.00099	0	0	0	0	0	0	0	0.00076	0	0	0	0	0	0	0	0	0	0	0	0	0	0
SGB14315	0.00074	0	0	0	0	0.0014	0	0	0	0	0.00042	0	0	0	0	0	0	0	0	0	0	0	0	0	0	0	0	0	0	0	0	0	0	0	0	0	0	0	0	0	0	0	0	0	0	0	0	0	0	0	0	0	0	0	0	0	0	0	0	0	0.00017	0	0	0	0	0	0	0	0	0	0	0	0	0	0
SGB14749	0.00074	0	0	0	0	0.00569	0.00038	0	0.00302	0	0	0	0	0	0	0	0	0	0.00172	0	0	0	0	0	0	0	0	0	0	0	0	0	0	0	0	0	0	0	0	0	0	0	0	0	0	0	0	0	0	0	0	0	0	0	0.00155	0	0	0	0	0	0.00478	0	0	0	0.00222	0	0	0	0	0	0	0	0	0	0
SGB2296	0.00074	0	0	0	0	0	0	0	0	0	0	0	0	0	0	0	0	0	0	0	0	0	0	0	0	0	0	0	0	0	0	0	0	0	0	0	0	0	0	0	0	0	0	0	0	0	0	0	0	0	0	0	0	0	0	0	0	0	0	0	0	0	0	0	0	0	0	0	0	0	0	0	0	0	0
SGB4315	0.00072	0	0	0	0	0	0	0	0	0	3.00E-05	0	0	0	0	0	0	0	0	0	0	0	0	0	0.00038	0	0	0	0	0	0	0	0	0	0	0	0	0	0	0	0	0	0	0	0	0	0	0	0	0	0	0	0	0	0	0	0	0	0	0	0	0	0	0	0	0	0	0	0	0	0	0	0	0	0
SGB63312	0.00072	0	0.00016	0	0	0.01166	0.00227	0	0.00418	0	0.00415	0	0.01753	0	0.01381	0	0.00342	0	0.01738	0	0.01593	0	0.00279	0	0.02441	0	0	0	0	0	0	0	0	0	0	0	0	0	0	0	0	0	0	0	0	0	0	0	0	0	0	0	0.22526	0	0.00632	0	0.00784	0	0.00282	0	0.03561	0	0.01213	0	0.01419	0	0	0	0	0	0.00047	0.00088	0	0	0
SGB7923	0.00072	0.00128	0.00319	0	0	0.246	0.01711	0	0.05466	0	0.04152	0	0	0	3.00E-05	0	0.00166	0.00317	0	0	0.00013	0	0	0	0.0007	0	0	0	0.00026	0	0	0.02646	0.07632	0.02594	0.1829	0.06791	0.07134	0.00552	0	0.04858	0	0	0	0	0.01532	0.04047	0.02578	0	0	0	0.18747	0	0	0	0	1.47415	0.00421	0	0.00233	0.08836	0.00078	0.0004	0.00226	0.02128	0	0	0	0	0	0	0	0	0.00118	0.05967	0.00525
SGB10236	0.00071	0	0.00338	0	0	0.00085	0	0	0	0	0	0	0	0	0	0	0	0	0	0	0	0	0	0	0	0	0	0	0	0	0	0	0	0	0	0	0	0	0	0	0	0	0	0	0	0	0	0	0	0	0	0	0	0	0	0	0.02636	0	0	0	0	0	0	0	0	0	0	0	0	0	0	0	0	0	0
SGB4598	0.00071	0	0	0	0	0.00156	0	0	0.00024	0	0	0	0.00139	0	0.00299	0	0.00116	0	0.00357	0	0.00243	0	0.00013	0	0.00612	0	0	0	0	0	0	0	0	0	0	0	0	0	0	0	0	0	0	0	0	0	0	0	0	0	0	0	0.02282	0	0.00088	0	0	0	0.00113	0	0.00802	0	0.00175	0	0.00306	0	0	0	0	0	0.00152	0.002	0	0	0
SGB59531	0.00071	0	0	0	0	0.00398	0.0006	0	0.00232	0	0.00243	0	0.00151	0	0.00152	0	0.00021	0	0.00274	0	0.00368	0	0.00091	0	0.00528	0	0	0	0	0	0	0	0	0	0	0	0	0	0	0	0	0	0	0	0	0	0	0	0	0	0	0	0.00033	0	0.00068	0	0	0	0.00074	0	0.00812	0	0.00088	0	0.00084	0	0	0	0	0	0	0.00376	0.00193	0	0
SGB47280	0.00064	0	0	0	0	0.00064	0	0	0.00014	0	0.00234	0	0	0	0	0	0	0	0	0	0	0	0	0	0	0	0	0	0	0	0	0	0	0	0	0	0	0	0	0	0	0	0	0	0	0	0	0	0	0	0	0	0	0	0	0	0	0	0	0	0	0	0	0	0	0	0	0	0	0	0	0	0.02546	0	0
SGB63344	0.00064	0	0	0	0	0.00333	0.00182	0	0.00171	0	0.00059	0	0	0	0	0	0	0	0	0	0	0	0	0	0	0	0	0	0	0	0	0	0	0	0	0	0	0	0	0	0	0	0	0	0	0	0	0	0	0	0	0	0.00387	0	0	0	0	0	0	0	0	0	0.00011	0	1.00E-05	0	0	0	0	0	0	0	0	0	0
SGB63347	0.00064	0	0	0	0	0	0	0	0	0	0	0	4.00E-05	0	0.00019	0	0	0	0	0	0	0	0	0	0.00031	0	0	0	0	0	0	0	0	0	0	0	0	0	0	0	0	0	0	0	0	0	0	0	0	0	0	0	0	0	0	0	0	0	9.00E-05	0	0.00229	0	0	0	0	0	0	0	0	0	0	0	0.00502	0	0
SGB10444	0.00063	0.00016	0	0	0	0	0	0	0.0001	0	0	0	0	0	0	0	0.00374	0	0	0	0	0	0	0	0	0	0.01287	0	0	0	0	0	0	0	0	0	0	0.00486	0	0	0	0	0	0	0.00153	0.02788	0.00303	0	0	0	0	0	0	0	0	0	0	0	0.00051	0	0	0	9.00E-05	0	0	0	0	0	0	0	0	0	0	0	0
SGB1786	0.00063	0	0.00056	0	0	0	0	0	0	0	0	0	0	0	0	0	0.00017	0	0.00052	0	0	0	0	0	0.00032	0	0	0	0	0	0	0	0	0	0	0	0	0	0	0	0	0	0	0	0	0	0	0	0	0	0	0	0.04014	0	0	0	0	0	0	0	0.00296	0	0	0	0.00089	0	0	0	0	0	0.00284	0.00125	0	0	0
SGB47610	0.00063	0	0	0	0	0	0	0	0	0	0	0	0	0	0	0	0	0	5.00E-05	0	0	0	0	0	0.00015	0	0	0	0	0	0	0	0	0	0	0	0	0	0	0	0	0	0	0	0	0	0	0	0	0	0	0	0	0	0	0	0	0	0	0	0	0	0.00014	0	0.00012	0	0	0	0	0	0	0	0	0	0
SGB35122	0.00062	0	0	0	0	0	0	0	0	0	0	0.00015	0	0	0	0	0	0	0	0	0	0	0	0	0	0	0	0	0	0	0	0	0	0	0	0	0	0	0	0	0	0	0	0	0	0	0	0	0	0	0	0	0	0	0	0.00012	0	0	0	0	0	0	0	0	0	0	0	0	0	0	0	0	0	0	0
SGB3666	0.00062	0	0.00133	0	0	0.02734	0.02134	0	0.03995	0	0.01879	0	0.00235	0	0.00643	0	0.00876	0	0	0	0.00024	0	0.00477	0	0.00603	0	0.00472	0	0	0	0	0.00554	0.00871	0.00634	0	0	0	0.05879	0.00314	0.09192	0	0	0	0	0.03039	0.02447	0.02869	0.00012	0.00106	0.00044	0.00056	0	0	0	0	0	0.00011	0	0.00032	0.00065	0	0	0.00192	0	2.00E-05	0	0	0	0	0	0	0	0	0.00019	0
SGB15201	0.00061	0	0	0	0	0.00266	0	0	0.00206	0	0.00544	0	0.0026	0	0.00339	0	0.00219	0	0.00485	0	0.00287	0	0.00164	0	0.00441	0	0	0	0	0	0	0	0	0	0	0	0	0	0	0	0	0	0	0	0	0	0	0	0	0	0	0	0.10578	0	0.00205	0	0	0	0.00428	0	0.00389	0	0.00832	0	0.00486	0	0	0	0	0	0.00013	0.00057	0.00122	0	0
SGB15305	0.00061	0	0	0	0	3.00E-05	0	0	0.00105	0	0	0	0.00881	0	0.00751	0	0.00081	0	0.00315	0	0.00464	0	0.0013	0	0.00696	0	0	0	0	0	0	0	0	0	0	0	0	0	0	0	0	0	0	0	0	0	0	0	0	0	0	0	0	0	0.0009	0	0.00057	0	0.00174	0	0.01611	0	0.00445	0	0.00321	0	0	0	0	0	0	0	0.0196	0	0
SGB15140	0.00059	0	0	0	0	0.00281	0.00242	0	0.0043	0	0.0053	0	0	0	0.00058	0	0	0	0.0005	0	0.00027	0	0	0	0.00132	0	0	0	0	0	0	0	0	0	0	0	0	0	0	0	0	0	0	0	0	0	0	0	0	0	0	0	0	0	0	0	0	0	4.00E-05	0	0.00623	0	0.00012	0	0.00027	0	0	0	0	0	0	0	0.00197	0	0
SGB33394	0.00059	0	0	0	0	0	0	0	0	0	0	0	0	0	0	0	0	0	0	0	0	0	0	0	0	0	0.00014	0	0	0	0	0	0	0	0	0	0	0	0	0	0	0	0	0	0	0	0	0.00033	0.0008	0.00024	0.00277	0	0	0	0	0	0	0	0	0	0	0	0	0	0	0	0	0	0	0	0	0	0	0	0
SGB66170	0.00054	0	0	0	0	0.00181	0	0	0	0	0.00151	0	0	0	0	0	0	0	0	0	0	0	0	0	0	0	0	0	0	0	0	0	0	0	0	0	0	0	0	0	0	0	0	0	0	0	0	0	0	0	0	0	0.01919	0	7.00E-05	0	0	0	0.0001	0	7.00E-05	0	0.00043	0	0.00076	0	0	0	0	0	0	0	0	0	0
SGB4621	0.00051	0	0	0	0	0.00034	0	0	0.00029	0	0	0	0	0	0	0	0	0	0	0	0	0	0	0	0.00025	0	0	0	0	0	0	0	0	0	0	0	0	0	0	0	0	0	0	0	0	0	0	0	0	0	0	0	0	0	0	0	0	0	0	0	0.00051	0	0	0	0	0	0	0	0	0	0	0	0	0	0
SGB30228	0.0005	0	0.0011	0	0	0	0	0	0	0	0.00113	0	0	0	0	0	0	0	0	0.00682	0	0	0	0	0	0	0.00011	0	0	0	0	0	0	0	0	0	0	0	0.00248	0	0	0	0	0	0	0	0	0	0	0	1.00E-05	0	0	0	0	0	0	0	0	0	0	0	0	0	0	0	0	0	0	0	0	0	0	0	0
SGB2329	0.00049	0	0.00018	0	0	3.00E-05	0	0	0	0	0	0	0	0	0	0	0	0	0	0	0	0	0	0	0	0	0	0	0	0	0	0	0	0	0	0	0	0	0	0	0	0	0	0	0	0	0	0	0	0	0	0	0.00515	0	0	0	0	0	0	0	0.00141	0	0	0	0	0	0	0	0	0	0	0	0	0	0
SGB63278	0.00049	0	0	0	0	0.00107	0.00193	0	0.00256	0	0.00235	0	0.00048	0	0.00017	0	0	0	0.0009	0	0.00156	0	0	0	0.00131	0	0	0	0	0	0	0	0	0	0	0	0	0	0	0	0	0	0	0	0	0	0	0	0	0	0	0	0.00075	0	0.00045	0	0	0	0.00037	0	0.00248	0	0.00117	0	0.00041	0	0	0	0	0	0	0	0	0	0
SGB6538	0.00049	0	0	0	0	0.00124	3.00E-05	0	0.0001	0	0.00038	0	0	0	0.00038	0	0	0	0.00022	0	0	0	0	0	0.00038	0	0	0	0	0	0	0	0	0	0	0	0	0	0	0	0	0	0	0	0	0	0	0	0	0	0	0	0.00059	0	0	0	0	0	0	0	0.00109	0	0	0	0	0	0	0	0	0	0	0	0	0	0
SGB12390	0.00042	0.00211	0	0	0	0.27737	0	0	0.00403	0	2.00E-05	0.00244	0.03307	0.00267	0	0	0	0.01585	0	0.00115	0	0	0	0	0	0	0	0	0.45647	0.37654	0.24524	0	0	0	0	0	0	0.00048	0.00068	0	0	0	0	0	0	0	0	0	0	0	0.01324	0	0	0	0	0.01944	0.00235	0	0.0138	0.10602	0	0	0	0.01407	0	0	0	0	0	0	0	0	0.01742	0.4696	0.04029
SGB29334	0.00042	0	0	0	0	0.00168	0.0011	0	0.00368	0	0.00303	0	0	0	0	0	0	0	0.00062	0	0.00076	0	0.00036	0	0.00014	0	0	0	0	0	0	0	0	0	0	0	0	0	0	0	0	0	0	0	0	0	0	0	0	0	0	0	0	0	0	0	0	0	0	0	0.0265	0	0.00011	0	6.00E-05	0	0	0	0	0	0	0	0	0	0
SGB6531	0.00041	0	0	0	0	0	0	0	0	0	0	0	0	0	0	0	0	0	0	0	0	0	0	0	0.00024	0	0	0	0	0	0	0	0	0	0	0	0	0	0	0	0	0	0	0	0	0	0	0	0	0	0	0	0.00027	0	0	0	0	0	0	0	0.00033	0	0	0	0	0	0	0	0	0	0	0	0	0	0
SGB6300	0.0004	0	0	0	0	0	0	0	0	0	6.00E-05	0	0	0	0.00059	0	9.00E-05	0	0.00067	0	0	0	0	0	0.0003	0	0	0	0	0	0	0	0	0	0	0	0	0	0	0	0	0	0	0	0	0	0	0	0	0	0	0	0	0	0	0	0	0	0	0	0	0	0.00037	0	0.00032	0	0	0	0	0	0	0	0	0	0
SGB49188	0.00035	0	0	0	0	5.00E-05	0	0	0	0	2.00E-05	0	0	0	0	0	0	0	0	0	0	0	0	0	0	0	0	0	0	0	0	0	0	0	0	0	0	0	0	0	0	0	0	0	0	0	0	0	0	0	0	0	0	0	0	0	0	0	5.00E-05	0	0.00067	0	0.00025	0	0	0	0	0	0	0	0	0	0	0	0
SGB7261	0.00034	0	0	0	0	0.0042	0.00146	0	0.00356	0	0.00578	0	0.00097	0	0.00118	0	1.00E-05	0	0.0029	0	0.00159	0	0.00022	0	0.00337	0	0	0	0	0	0	0	0	0	0	0	0	0	0	0	0	0	0	0	0	0	0.00013	0	0	0	0	0	0.00947	0	0.00015	0	0	0	0.00054	0	0.0028	0	0.00158	0	0.00133	0	0	0	0	0.00058	0.00062	0.00179	0	0	0
SGB33843	0.00033	0.01325	0	0	0	0.00202	0	0	0	0	0	0	0.00191	0	0	0	0	0.00142	0	0.0239	0	0	0	0	0	0	0.00015	0	0	0	0	0	8.00E-05	0	0	0	0	0.0023	0.00738	0.02077	0.00682	0	0	0	0.00855	0.01083	0.01163	0.00354	0.00408	0.00338	0.03016	0	0	0	0	0	0.00573	0	0	0	0	0	0	0	0	0	0	0	0	0	0	0	0	0	0
SGB3990	0.00033	0	0	0	0	0.0012	0	0	0.00064	0	0.00154	0	0	0	0	0	0	0	0	0	0	0	0	0	0	0	0	0	0	0	0	0	0	0	0	0	0	0	0	0	0	0	0	0	0	0	0	0	0	0	0	0	0.00122	0	0	0	0	0	0	0	0.00015	0	0	0	0	0	0	0	0	0	0	0	0	0	0
SGB28999	0.0003	0	0	0	0	0.00062	0	0	0.00116	0	0.00148	0	0	0	0	0	0	0	0	0	0	0	0	0	0	0	0	0	0	0	0	0	0	0.00095	0	0	0	0	0	0	0	0	0	0	0	0	0	0	0	0	8.00E-05	0	0	0	0	0	0	0	0	0	0	0	0	0	0	0	0	0	0	0	0	0	0	0	0
SGB1789	0.00029	0	0.00576	0	0	0	0	0	0	0	0	0	0	0	0	0	0	0	0	0	0	0	0	0	0	0	0	0	0	0	0	0	0	0	0	0	0	0	0	0	0	0	0	0	0	0	0	0	0	0	0	0	0.00585	0	0	0	0	0	0	0	0	0	0	0	0	0	0	0	0	0	0	0	0	0	0
SGB17126	0.00027	0	0.01569	0	0	0.06304	0.00047	0	0.00096	0	0.06864	0	0.21024	0.00102	0.48038	0.00684	0.05325	0	0.06269	0.00688	0.11192	0	0.15072	0.00174	0.29961	0	0	0	0	0	0	0	0	0	0	0	0	0.00012	0	0.00457	0	0	0	0	0.00237	0	0.00112	0	0	0	0.00365	0	0	0	0.27496	0.68297	0.33228	0.00142	0.11215	0.01158	0.2193	0.00468	0.65182	0.0254	0.19573	0	0.10587	0	0	0.15701	0.22552	0.23958	0.12587	0.21929	0.10859
SGB1949	0.00027	0	0	0	0	0.00183	0	0	0	0	0	0	0	0	0	0	0.00297	0	0.00125	0	0.00461	0	0	0	0.00321	0	0	0	0	0	0	0	0	0	0	0	0	0	0	0	0	0	0	0	0	0	0	0	0	0	0	0	0	0	0.0014	0	0	0	0.00197	0	0	0	0	0	0.00526	0	0	0	0	0	0	0	0	0	0
SGB56855	0.00024	0	4.00E-05	0	0	0.00451	0	0	0.00035	0	0	0	0	0	0	0	0	0	0	0	0	0	0	0	0	0	0	0	0	0	0	0	0	0	0	0	0	0	0	0.0001	0	0	0	0	0	0	0	0	0	0	0.00096	0	0	0	0	0	0.00022	0	0	0	0	0	0	0	0	0	0	0	0	0	0	0	0	0	0
SGB6791_group	0.00024	0	0	0	0	0.00694	0.0025	0	0.01068	0	0.00252	0	0	0	0	0	0	0	0	0	0.00012	0	0.00017	0	0	0	0	0	0	0	0	0	0	0	0	0	0	0.00032	0	0.00126	0	0	0	0	0.00527	0.00401	0.00631	0	0	0	0.00088	0	0	0	0	0	0	0	0.00044	0	0	0	0	0	0	0	0	0	0	0	0	0	0	0	0
SGB6393	0.00022	0	0	0	0	0.0009	0	0	0.00204	0	0.00134	0	0	0	0	0	0	0	0	0	0	0	0	0	0.00014	0	0	0	0	0	0	0	0	0	0	0	0	0	0	0	0	0	0	0	0	0	0	0	0	0	0	0	0	0	0	0	0	0	0	0	0.0083	0	0	0	0	0	0	0	0	0	0	0	0	0	0
SGB63238	0.0002	0	0	0	0	0.00196	0.00056	0	0.00158	0	0.00185	0	0	0	0.00016	0	0	0	0.00083	0	0.00014	0	0	0	0.00049	0	0	0	0	0	0	0	0	0	0	0	0	0	0	0	0	0	0	0	0	0	0	0	0	0	0	0	0.02003	0	0	0	0	0	0.00026	0	0.00178	0	0.0014	0	0.00029	0	0	0	0	0	0	0	0	0	0
SGB7970	0.0002	0	0.00487	0	0	0.00767	0	0	0	0	0	0	0.01429	4.00E-05	0.01766	0.00051	0.00255	0	0.01495	0.00298	0.03091	0	0.0077	0	0.01849	0	0	0	0	0	0	0	0	0	0.10361	0	0	0	0.00179	0	0	1.29635	1.01552	0.61199	0	0	0	0	0	0	0	0	0	0	0.01729	0.03446	0.04536	0.02789	0.01255	0.00557	0.01898	0	0.01404	0.00174	0.02313	0	0.01446	0.25399	0.14198	0.03487	0.0221	0.03058	0.11795	0.01811	0.03959
SGB88311	0.00019	0	0	0	0	0.00427	0	0	0	0	0	0	0	0	0	0	0	0	0	0	0	0	0	0	0	0	0	0	0.17875	0.07296	0.06704	0	0	0	0	0	0	0	0.00026	0	0.01479	0.01809	0.0167	0.01467	0	0	0	0	0	0	0	0	0	0	0	0	0	0	0	0	0	0	0	0.00174	0	0	0	0	0	0	0	0	0	0	0
SGB10403	0.00018	0.01354	0	0	0	0.67191	0	0	0.03194	0	0.00746	0.01237	0	0	0	0	0	0	0	0	0	0	0	0	0	0	0	0	0.12167	0.04202	0.18811	0	0	0	0	0	0.00127	0	0	0	0.06155	0.37765	2.88467	0.91087	0	0.00045	0.0063	0	0	0.00172	0.00351	0	0	0	0	0.31385	0	0	0	0.08474	0	0.00023	0	0.04155	0	0	0.01039	0.01132	0.17481	0	0	0	0	0	0
SGB4506	0.00018	0	0	0	0	0.00653	0.0045	0	0.00345	0	0.01481	0	0.00366	0	0.00476	0	0.00146	0	0.00602	0	0.00406	0	0.00248	0	0.00622	0	0	0	0	0	0	0	0	0	0	0	0	0.0011	0	0.00105	0	0	0	0	0.00114	0.00199	0.00425	0	0	0	7.00E-05	0	0.00454	0	0.00369	0	0.00158	0	0.00347	0	0.00949	0	0.00478	0	0.00571	0	0	0	0	0.00928	0.00883	0.01249	0.00948	0.00176	0.00022
SGB15746	0.00016	0	0.00889	0	0.00968	0	0	0	0.00289	0	0	0	0.03929	0	0	0	0.00106	0	0	0.00364	0	0	0	0	0	0	0	0	0	0	0	0	0	0	0	0	0	0.04132	0.02801	0	0.00551	0	0	0	0.03133	0.06949	0.04367	0	0.00403	0.00168	0.20356	0	0	0	0	0	0	0	0	0	0	0	0	0	0	0	0	0	0	0	0	0	0.0082	0.02289	0.02848
SGB6431	0.00016	0	0	0	0	0	0	0	0	0	0	0	0	0	0	0	0	0	0	0	0	0	0	0	0	0	0	0	0	0	0	0	0	0	0	0	0	0	0	0	0	0	0	0	0	0	0	0	0	0	0	0	0	0	0	0	0	0	0	0	0.00013	0	0	0	0	0	0	0	0	0	0	0	0	0	0
SGB87556	0.00016	0	0.0004	0	0	0	0	0	0	0	0	0	0.00029	0	0	0	8.00E-05	0	0	0	0	0	0	0	0	0	0.00034	0	0	0	0	7.00E-05	0.00034	4.00E-05	0	0	0	0.00057	0	9.00E-05	0	0	0	0	0.00298	0.00376	0.0024	0	0	0	0.00146	0	0	0	0	0	0	0	0	0	0	0	0	0	0	0	0	0	0	0	0	0	0	0	0
SGB19444	0.00014	0	0.0004	0	0	0	0	0	0	0	0	0	0.00189	0	0.00238	0	0.00115	0	0.00473	0	0.00146	0	0	0	0.00938	0	0	0	0	0	0	0	0	0	0	0	0	0	0	0	0	0	0	0	0	0	0	0	0	0	0	0	0.03142	0	0	0	0	0	0	0	0.05238	0	0.00199	0	0.00453	0	0	0	0	0	0	0	0	0	0
SGB4775	0.00014	0	0	0	0	0.00095	0.00023	0	0.00151	0	0.00124	0	0.00039	0	5.00E-05	0	0	0	0.00068	0	7.00E-05	0	0	0	0.0015	0	0	0	0	0	0	0	0	0	0	0	0	0	0	0	0	0	0	0	0	0	0	0	0	0	0	0	0.00467	0	2.00E-05	0	0	0	0.00038	0	0.00559	0	0.00047	0	0.00075	0	0	0	0	0	0	0	0	0	0
SGB2275	0.00013	0	0	0	0	0	0	0	0	0	0	0	0	0	0	0	0	0	0	0	0	0	0	0	0	0	0	0	0	0	0	0	0	0	0	0	0	0	0	0	0	0	0	0	0	0	0	0	0	0	0	0	0	0	0	0	0	0	0	0	0	0	0	0	0	0	0	0	0	0	0	0	0	0	0
SGB2909	0.00013	0	0	0	0	0	0	0	0	0	0	0	0	0	0	0	0	0	0	0	0	0	0	0	0	0	0.00056	0	0	0	0	0.00499	0.00139	0.00087	0	0	0	0	0	0	0	0	0	0	0	0	0	0	0	0	0	0	0	0	0	0	0	0	0	0	0	0	0	0	0	0	0	0	0	0	0	0	0	0	0
SGB9262	0.00013	0	0	0	0	0	0	0	0	0	0	0	0	0	0.00068	0	0	0	0	0	0.00027	0	0	0	0.0053	0	0	0	0	0	0	0	0	0	0	0	0	0	0	0	0	0	0	0	0	0	0	0	0	0	0	0	0	0	0.00027	0	0	0	0	0	0	0	0	0	0	0	0	0	0	0	0	0	0	0	0
SGB9256	0.00012	0	0	0	0	0.00018	0	0	0.00061	0	0.00135	0	0	0	0	0	0	0	0	0	0	0	0	0	0	0	0	0	0	0	0	0	0	0	0	0	0	0	0	0	0	0	0	0	0	0	0	0	0	0	0	0	0	0	0	0	0	0	0	0	0	0	0	0	0	0	0	0	0	0	0	0	0	0	0
SGB23788	0.00011	0	0.00026	0	0	0.00042	0.00027	0	0.00054	0	0.00022	0	0	0	0	0	0	0	0	0	0	0	0	0	0	0	0	0	0	0	0	0	0	0	0	0	0	0.00016	0	0.00011	0	0	0	0	0	0	0	0	0	0	0.00025	0	0	0	0	4.00E-05	0	0	0	0	0	0	0	0	0	0	0	0	0	0	0	0	0	0	0
SGB6388	0.00011	0	0	0	0	0	0	0	0	0	0.0001	0	0	0	0	0	0	0	0	0	0	0	0	0	0	0	0	0	0	0	0	0	0	0	0	0	0	0	0	0	0	0	0	0	0	0	0	0	0	0	0	0	0.00194	0	0	0	0	0	0	0	0.00075	0	0	0	0	0	0	0	0	0	0	0	0	0	0
SGB14854	0.0001	0	0	0	0	0.00058	0	0	2.00E-05	0	0.00014	0	0	0	0	0	0	0	0	0	0	0	0	0	0	0	0	0	0	0	0	0	0	0	0	0	0	0	0	0	0	0	0	0	0	0	0	0	0	0	0	0	0	0	0	0	0	0	0	0	0	0	0	0	0	0	0	0	0	0	0	0	0	0	0
SGB16652	0.0001	0	0.00023	0	0	0.00242	0.00042	0	0.0005	0	0.00027	0	0	0	0	0	0	0	0	0	0	0	0	0	0	0	0	0	0	0	0	0	0	0	0	0	0	0.00014	0	0.00034	0	0	0	0	0	0	0	0	0	0	0.00016	0	0	0	0	0.00102	0.00083	0	0	0	0	0	0	0	0	0	0	0	0	0	0	0	0	0	0.00046
SGB6176	0.0001	0	0	0	0	0	0	0	0	0	0.00105	0	0	0	0	0	0	0	0	0	0	0	0	0	0	0	0	0	0	0	0	0	0	0	0	0	0	0	0	0	0	0	0.00158	0.00437	0	0	0	0	0	0	0	0	0	0	0	0	0	0	0	0	0	0	0	0	0	0	0	0	0	0	0	0	0	0	0
SGB15139	9.00E-05	0	0	0	0	0.0008	0.00096	0	0.00178	0	0.00129	0	0	0	0	0	0	0	0	0	0	0	0	0	0	0	0	0	0	0	0	0	0	0	0	0	0	0	0	0	0	0	0	0	0	0	0	0	0	0	0	0	0	0	0	0	0	0	0	0	0.00046	0	0	0	0	0	0	0	0	0	0	0	0	0	0
SGB87569	9.00E-05	0	0	0	0	0	0	0	0	0	0	0.01487	0	0	0	0	0	0	0	0	0	0	0	0	0	0	0	0	0	0	0	0	0	0	0	0	0	4.00E-05	0.01608	9.00E-05	0	0	0	0	0	0	0	0	0	0	0.00044	0	0	0	0	0	0	0	0	0	0	0	0	0	0	0	0	0	0	0	0	0	0	0	0
SGB34829	8.00E-05	0	3.00E-05	0	0	0.0005	0.00035	0	0.00017	0	0.00029	0	0	0	0	0	0	0	0	0	0	0	0	0	0	0	0	0	0	0	0	0	0	0	0	0	0	6.00E-05	0	0	0	0	0	0	0	0	0	0	0	0	6.00E-05	0	0	0	0	0	0	0	0	0	0	0	0	0	0	0	0	0	0	0	0	0	0	0	0
SGB10251	7.00E-05	0	0.00169	0	0	0.01208	0	0	0	0	0	0	0.0001	0	0.00245	0	0	0	0	0	0	0	0	0	0	0	0	0	0	0	0	0	0	0	0	0	0	0	0	0	0	0	0	0	0	0	0	0	0	0	0.00039	0	0	0	0	0	0.01878	0	0	0	0	0	0	0	0	0	0	0	0	0	0	0	0	0	0
SGB32010	7.00E-05	0	0.00036	0	0	0	0	0	0	0	0	0	0.00019	0	0	0	0	0	0	0	0	0	0	0	0	0	0	0	0	0	0	0	0	0	0	0	0	0	0.00431	0	0	0	0	0	0	0	0.00023	0.00733	0.00904	0.00899	0.00073	0	0	0	0	0	0	0	0	0	0	0	0	0	0	0	0	0	0	0	0	0	0	0	0
SGB63691	7.00E-05	0	0.00189	0	0	0.00012	0	0	0	0	0	0	0.00029	0	0.00321	0	0.0011	0	0.00022	0	0.00112	0	1.00E-05	0	0.00519	0	0	0	0	0	0	0	0	0	0	0	0	0	0	0	0	0	0	0	0	0	0	0	0	0	0	0	0	0	0.00057	0	0	0	0.00097	0	0.00519	0	0.00078	0	0.00113	0	0	0	0	0.00153	0.00237	0.00316	0	0	0
SGB87479	6.00E-05	0	0	0	0	0	0	0	0	0	0	0	0	0	0	0	0	0	0	0	0	0	0	0	0	0	0	0	0	0	0	0	0	0	0	0	0	0	0	0	0	0	0	0	0	0	0	0	0	0	0	0	0	0	0	0	0	0	0	0	0	0	0	0	0	0	0	0	0	0	0	0	0	0	0
SGB66065	5.00E-05	0	0.00934	0	0	0.00233	0	0	0	0	0	0	0.00486	0	0.0063	0	0.00109	0	0.00487	0	0.0053	0	0.00093	0	0.011	0	0	0	0	0	0	0	0	0	0	0	0	0	0	0	0	0	0	0	0	0	0	0	0	0	0	0	0.01585	0	0.00586	0	0.00143	0	0.00608	0	0.03983	0	0.00325	0	0.00486	0	0	0	0	0.00291	0.00421	0.00374	0.00149	0	0
SGB2328	4.00E-05	0	0	0	0	0	0	0	0	0	0	0	0	0	0	0	0	0	0	0	0	0	0	0	0	0	0	0	0	0	0	0	0	0	0	0	0	0	0	0	0	0	0	0	0	0	0	0	0	0	0	0	0.00137	0	0	0	0	0	0	0	0.00017	0	0	0	0	0	0	0	0	0	0	0	0	0	0
SGB88049	4.00E-05	0	0	0	0	0	0	0	0	0	0	0	0	0	0.00114	0	0	0	0	0	0	0	0	0	0	0	0	0	0	0	0	0	0	0	0	0	0	0	0.01992	0	0	0	0	0	0	0	0	0	0	0	0	0	0	0	0	0	0.00594	0	0	0	0	0	0	0	0	0	0	0	0	0	0	0	0.00011	0	0
SGB15272	3.00E-05	0	0	0	0	0	0	0	0	0	0	0	0.00261	0	0.00214	0	0.00054	0	0.00206	0	0.00143	0	6.00E-05	0	0.00474	0	0	0	0	0	0	0	0	0	0	0	0	0	0	0	0	0	0	0	0	0	0	0	0	0	0	0	0.00138	0	0.00051	0	5.00E-05	0	0.00091	0	0.00389	0	0.0008	0	0.00247	0	0	0	0	0	0	0	0	0	0
SGB16389	3.00E-05	0	0	0	0	0	0	0	0	0	0	0	0	0	0	0	0	0	0	0	0	0	0	0	0	0	0	0	0	0	0	0	0	0	0	0	0	0	0.01578	0	0	0	0	0	0	0	0	0	0	0	0	0	0	0	0	0	0	0	0	0	0	0	0	0	0	0	0	0	0	0	0	0	0	0	0
SGB34315	3.00E-05	0	0.00022	0	0	0.00401	0	0	0.01149	0	0	0	0	0	0.00121	0	0	0	0	0	0	0	0	0	0	0	0	0	0	0	0	0	0	0	0	0	0	0.00071	0.01678	0.01234	0	0	0	0	0.00303	0.00074	0.00249	0	0	0	0	0	0	0	0	0	0	0	0	0	0	0	0	0	0	0	0	0	0	0	0	0	0	0	0
SGB15165	2.00E-05	0	0	0	0	0.0009	0	0	0.00153	0	0.00066	0	0.00032	0	0	0	0	0	0.00143	0	0.00105	0	0	0	0.00217	0	0	0	0	0	0	0	0	0	0	0	0	0	0	0	0	0	0	0	0	0	0	0	0	0	2.00E-05	0	0.00528	0	0	0	0	0	2.00E-05	0	0.00091	0	0.00055	0	0.00127	0	0	0	0	0	0	0	0	0	0
SGB15768	2.00E-05	0	0.00014	0	0	0.00987	0	0	0	0	0	0	0	0	0	0	0	0	0	0	0	0	0	0	0	0	0	0	0	0	0	0	0	0	0	0	0	0	0.02325	0	0	0	0	0	0	0	0	0	0	0	0	0	0	0	0	0	0	0	0	0	0	0	0	0	0	0	0	0	0	0	0	0	0	0	0
SGB1790	2.00E-05	0	0	0	0	0	0	0	0	0	0	0	0	0	0.00209	0	0	0	0	0	0.00146	0	0	0	0.00401	0	0	0	0	0	0	0	0	0	0	0	0	0	0	0	0	0	0	0	0	0	0	0	0	0	0	0	0.00781	0	0	0	0	0	7.00E-05	0	0.00964	0	0.00122	0	0.0011	0	0	0	0	0	0	0	0	0	0
SGB5181	2.00E-05	0	0	0	0	0.00278	0.00122	0	0.00469	0	0.00401	0	0.00016	0	0	0	0	0	0.00068	0	0	0	0	0	0.00097	0	0	0	0	0	0	0	0	0	0	0	0	0	0	0	0	0	0	0	0	0	0	0	0	0	0	0	0.0034	0	0	0	0	0	0	0	0.001	0	0.00033	0	0	0	0	0	0	0	0	0	0	0	0
SGB82657	2.00E-05	0	0	0	0	0.00073	0.00509	0	0.02326	0	0.00533	0	0	0	0	0	0	0	0	0	0	0	0	0	0	0	0	0	0	0	0	0	0	0	0	0	0	0.01389	0	0.37956	0	0	0	0	0.07887	0.05269	0.07541	0	0	0	0.00362	0	0	0	0	0	0	0	0	0	0	0	0	0	0	0	0	0	0	0	0	0	0	0	0
SGB34202	1.00E-05	0	0	0	0	0.00012	0	0	0.00013	0	0	0	0	0	0	0	0	0	0	0	0	0	0	0	0	0	0	0	0	0	0	0	0	0	0	0	0	0	0	0	0	0	0	0	0	0	0	0	0	0	0	0	0	0	0	0.00011	0	0	0	0	0	0	0	0	0	0	0	0	0	0	0	0	0	0	0
SGB63341	1.00E-05	0	0	0	0	0.00105	0	0	0.00092	0	0.00063	0	0	0	0	0	0	0	0	0	0	0	0	0	0.00058	0	0	0	0	0	0	0	0	0	0	0	0	0	0	0	0	0	0	0	0	0	0	0	0	0	0	0	0.00107	0	0	0	0	0	0	0	0.00182	0	0	0	5.00E-05	0	0	0	0	0	0	0	0	0	0
SGB16015	0	0.31072	0	0.26747	0.09526	0	0	0.02641	0	0.04086	0	0.01352	0	0.00793	0	0.003	0	0.01398	0	0.06842	0	0.00056	0	0	0	0	0	0.02307	0.02832	0.05484	0.02373	0	0	0	0.09033	0.10136	0.11188	0	0.03899	0	0.01729	0	0	0	0	0	0	0	0	0	0	0	0	0.03427	0	0.00026	0	0.15723	0	0.40373	0	0.0264	0	0.23385	0	0.03335	0	0	0	0	0	0	0	0.00019	0.00048
SGB16053	0	0.24287	0	0.26751	0.00032	0.01982	0	0.0107	0	0	0	0.00806	0	0.06069	0	0.04986	0	0.07438	0	1.01385	0	0.1045	0	0.03403	0	0.01246	0	0.00895	0.71861	0.50301	0.63375	0	0	0	0.01156	0.01112	0.01106	0.00106	0.27518	0	0.01793	0.13556	0.05686	0.1175	0	0	0	0	0	0	0.01198	0	0	0	0	9.00E-05	8.00E-05	0.01043	0	0.02403	0	0.01193	0	0.05399	0	0.00684	0.00339	0.02312	0.03095	0	0	0	0.03063	0.07181	0.07504
SGB16869	0	0.17046	0	0.01274	0	0	0	0	0	0	0	0	0	0.01759	0	0.01116	0	0.00271	0	0.25914	0	0.00034	0	0.00857	0	0.02124	0	0	0.02637	0.01875	0.01441	0	0	0	0	0	0	0	0	0	0.00155	0.00016	0	0	0	0	0	0	0	0	0	0	0	0	0	0	0	0	0	0	0	0.00565	0	0.00171	0	0	0	0.01002	0.00877	0	0	0	0.00649	0.02606	0.01949
SGB16030	0	0.16037	0	0.00814	0.05206	0	0	0.03271	0	0.05368	0	0.01665	0	0.00799	0	0	0	0.0019	0	0.00032	0	0	0	0	0	0	0	0	0	0	0	0	0	0	7.00E-05	0.0002	0	0	0	0	0.00044	0	0	0	0	0	0	0.00184	0.00425	0.00338	0	0	0	0.00112	0	0	0	0.00633	0	0	0	0.04521	0	0.00014	0	0.00403	0	0	0	0	0	0	0	0	0
SGB16880	0	0.15815	0	0.1679	1.67126	0.00168	0	0.03553	0	0.00508	0	0.00654	0	0.02601	0	0.00656	0	0	0	0.01969	0	0.01019	0	0	0	0	0	0.0631	0	0.00216	0	0	0	0	0.13114	0.07077	0.05196	0	0.07484	0	0.15793	0	0	0	0	0	0	0	0.00088	0.00905	0	0	0	0.0194	0	0.02	0	0.39522	0	0.48487	0	0.06741	0	0.78132	0	0.10882	0	0	0	0	0	0	0.00222	0	0.00205
SGB16748	0	0.15675	0	0.00061	0	0.01418	0	0	0	0	0	0.00161	0	0.02101	0	0	0	0.00881	0	0.3014	0	0.02126	0	0	0	0.00454	0	0.00155	1.09702	1.90338	1.08866	0	0	0	0.02148	0.01214	0.029	0	0.22717	0	0.00839	0	0	0	0	0	0	0	0	0	0.02176	0	0	0	0	0.02155	0.00348	0.00852	0	0.04101	0	0.02255	0	0.26487	0	0	0.23367	1.27298	2.84555	0	0	0	0	0	0.00251
SGB17539	0	0.15622	0	0.02933	0.01131	0	0	0	0	0	0	0.00944	0	0.10953	0	0.04336	0	0.01658	0	0.08543	0	0.00251	0	0.00312	0	0.03799	0	0.12725	0	0	0	0	0	0	0.38364	0.47007	0.34413	0	0.16997	0	0.28433	0	0	0	0	0	0	0	0	0	0	0	0	0.06525	0	0	0	0.60042	0	0.57817	0	0.17881	0	0.68694	0	0.01085	0	0	0	0	0	0	0.0095	0.01069	0.0043
SGB24580	0	0.15018	0	0	0	0.0029	0	0	0.00017	0	0	0	0.00025	0	0	0	0	0.00631	0	0.00797	0	0.0001	0	0	0	0	0	0	0	0	0.00051	0	0	0	0	0	0	0	0.03517	0	0	0	0	0	0.00018	0.00135	0.00101	0.00208	0.00446	0.0028	0.00073	0	0	0	0	0	0.00366	0	0	0.00213	0	0	0	0.05932	0	0	0	0	0	0	0	0	0.00144	0.0002	0.00011
SGB13440	0	0.14539	0	0.01004	0.00208	0	0	0.02534	0	0.8132	0	0.01077	0	0.21824	0	0.01902	0	0	0	0.00908	0	0.00564	0	0.00687	0	0.01384	0	0.00294	0	0	0	0	0	0	0	0	0	0	0.0599	0	0.01042	0	0	0	0	0	0	0	0	0	0	0	0	0	0	0	0	0	0	0	0	0.01032	0	0	0	0	0	0	0	0	0	0	0	0	0
SGB24014	0	0.13565	0	0.02796	0.02665	0	0	0.02528	0	0.05085	0	0.02731	0	0	0	0.04294	0	0.24217	0	0.02862	0	0	0	0.02357	0	0.0321	0	0.02997	0	0	0	0	0	0	0.00813	0.00883	0.00747	0	0	0	0.00189	0	0	0	0	0	0	0	0	0	0	0	0	0.00356	0	0	0	0.11464	0	0.37513	0	1.25493	0	0.04427	0	0.18722	0	0	0	0	0	0	0	0	0
SGB88600	0	0.12313	0	0.0089	0	0	0	0.00034	0	0.00118	0	0	0	0	0	0	0	0	0	0	0	0	0	0	0	0	0	0.00023	0	0	0	0	0	0	0	0	0	0	0	0	0.00251	0	0	0	0	0	0	0	0.00075	0.00324	0	0	0	0	0	0	0	0.00712	0	0.00476	0	0.00349	0	0.00017	0	0	0	0	0	0	0	0	0	0	0
SGB87669	0	0.10824	0	0.0143	0.00242	0	0	0.03354	0	0.05169	0	0.00354	0	0.00423	0	0	0	0	0	0.0166	0	0.01696	0	0	0	0	0	0.00433	0.00189	0.0014	0.00174	0	0	0	0.00217	0.00358	0.0022	0	0.03509	0	0.02267	0	0	0	0	0	0	0	0.00159	0.00243	0	0	0	0.02078	0	0	0	0.00829	0	0.01805	0	0.00944	0	0.03503	0	0.01529	0	0	0	0	0	0	0	0	0
SGB27690	0	0.10634	0	0.06911	0.01716	0	0	0.00755	0	0.01107	0	0.03692	0	0.00204	0	0.02179	0	0.18784	0	0.00492	0	0	0	0.00299	0	0	0	0.00245	0	0.00043	0.00099	0	0	0	0.04061	0.02746	0.03274	0	0.0008	0	0.00531	0	0	0	0	0	0	0.00926	0.01064	0.01402	0	0	0	0.0121	0	0	0	0.04096	0	0.158	0	0.38434	0	0.071	0	0.08348	0	0	0	0	0	0	0	0	0
SGB15953	0	0.10233	0	0.36742	0.02004	0	0	0.00212	0	0.06689	0	0.0002	0	0.49644	0	0.15153	0	0.00048	0	0.27206	0	1.01857	0	0.0111	0	0.39184	0	0.11205	0	0	0	0	0	0	0.02572	0.04735	0.03291	0	0.08939	0	0.6952	0	0	0	0	0	0	0	0	0.00023	0	0	0	0.01349	0	0	0	0.10104	0	0.09582	0	0.06114	0	0.15978	0	0.0771	0	0	0	0	0	0	0.07134	0.04188	0.05706
SGB34240	0	0.09485	0	0.0036	0	0.07881	0	0	0.00128	0	0.00018	0.00012	0.01427	0.00631	0	0.02364	0	0.18043	0	0.02211	0	0.00784	0	0	0	0	0	0.0003	1.63381	1.35723	1.15514	0	0	0	0.04108	0.01204	0.02384	0.00018	0.02935	0	0.0099	0	0	0	0.0006	0.00212	0.00092	0	0	0	0.18008	0	0	0	0	0.46725	0	0.08104	0	1.40296	0	0.00723	0	1.2675	0.00069	0	0	0	0	0	0	0	0.01038	0.00588	0.0113
SGB16079	0	0.08805	0	0.0162	0	0	0	0	0	0	0	0.00154	0	0.00265	0	0.1147	0	0.13999	0	0.17667	0	0.07039	0	0	0	0	0	0.02501	0.00627	0.00672	0.0055	0	0	0	0.02503	0.02695	0.01707	0	0.0076	0	0.00172	0	0	0	0	0	0	0	0	0	0	0	0	0	0	0	0	1.03417	0	0.27105	0	0.21391	0	0.02423	0	0.02903	0	0	0	0	0	0	0	0	0
SGB11742_group	0	0.08751	0	0.11721	0.0279	0	0	0.04459	0	0.00467	0	0	0	0.01046	0	0	0	0	0	0.03778	0	0	0	0	0	0	0	0.04365	0	0.00355	0.00181	0	0	0	0.07245	0.10815	0.10091	0	0.00555	0	0.11357	0.00812	0	0	0	0	0	0	0	0	0	0	0	0.03906	0	0	0	0.08498	0	0.22695	0	0.06782	0	0.02366	0	0.01759	0	0	0	0	0	0	0.00211	0.00052	0.00191
SGB88952	0	0.0847	0	0.0047	0	0.02572	0	0	0.00235	0	0	0.01426	0	0.00404	0	0	0	0.1219	0	0.00734	0	0.00309	0	0	0	0	0	0	0.3481	0.20497	0.21033	0	0	0	0.03331	0.0243	0.04028	0.00071	0.03254	0	0	0	0	0	0.00241	0.00443	0.00278	0.00293	0.00472	0.00685	0.00685	0	0	0	0	0.05983	0	0	0	0.2318	0	0.00086	0	0.02922	0	0	0	0	0	0	0	0	0	0	0
SGB82404	0	0.08117	0	0.00383	0	0	0	0	0	0	0	0	0	0	0	0	0	0	0	0	0	0	0	0	0	0	0	0	0	0	0	0	0	0	0.03309	0	0	0	0	0	0.00721	0	0	0	0	0	0	0	0	0	0	0	0	0	0	0.01478	0	0.00256	0	0.01596	0	0.00206	0	0.00253	0	0	0	0	0	0	0	0	0	0	0
SGB38077	0	0.07904	0	0	0	0.00797	0	0	0.00131	0	0	0.00473	0	0.00018	0.00111	0.00942	0	0.19335	0	0.03611	0	0	0	0.00343	0	0.00588	0	0	0.00174	0.00072	0.00102	0	0	0	0	0	0	0	2.11542	0	0.00015	0	0	0	0.00078	0.00031	0	0	0	0	0.01063	0	0	0	0	0.00661	0.00408	0.00331	0.001	0.79961	0	0.00502	0	0.22684	0	0	0.45068	1.51011	2.85995	0	0	0	0.25629	0.5372	0.46002
SGB34983	0	0.07565	0	0.00013	0	0	0	0.008	0	0.00957	0	0	0	0	0	0.00391	0	0	0	0	0	0	0	0	0	0	0	0.00127	0	0	0	0	0	0	0	0	0	0	0.02392	0	0.00587	0	0	0	0	0	0	0	0	0	0	0	0	0	0	0	0	0.02478	0	0.00447	0	0.0075	0	0.00161	0	0	0	0	0	0	0	0	0	0	0
SGB34149	0	0.07497	0	0	0.00504	0	0	0.03096	0	0.04471	0	0.00149	0	0.00691	0	0	0	0	0	0.00027	0	0	0	0	0	0	0	0.005	0	0	0	0	0	0	0	0	0	0	0	0	0.0015	0	0	0	0	0	0	0	0	0	0	0	0	0.00602	0	0	0	0	0	0	0	0.01168	0	0	0	0	0	0	0	0	0	0	0	0	0
SGB16881	0	0.07382	0	0.03128	0.06296	0.00097	0	0.00024	0	0.00181	0	0.00024	0	0	0	0	0	0	0	0.0015	0	0.0003	0	0	0	0	0	0	0	0	0	0	0	0	0.00111	0	0	0	0	0	0.00067	0	0	0	0	0	0	0	0	0	0	0	0	0	0	0	0	0.19659	0	0.11037	0	0.02012	0	0.10481	0	0	0	0	0	0	0	0	0	0	0
SGB10725	0	0.07381	0	0	0	0	0	0	0	0	0	0	0	0	0	0	0	0.04112	0	0.00374	0	0	0	0	0	0	0	0	0.03118	0.02448	0.01753	0	0	0	0	0	0	0	0.00212	0	7.00E-05	0	0	0	0	0	0	0	0	0	0.00037	0	0	0	0	0	0.00314	0	0	0.00134	0	0	0	0	0	0	0	0	0	0	0	0	0	0	0
SGB78290	0	0.07302	0	0.03356	0.02034	0	0	0.00188	0	0.00497	0	0.01158	0	0.0015	0	0	0	0.01161	0	0.00324	0	0	0	8.00E-05	0	0	0	0	0	0	0	0	0	0	0.0472	0.02996	0.03799	0	0	0	0.00366	0	0	0	0	0	0	0.03828	0.03556	0.04928	0	0	0	0.01507	0	0	0	0.00302	0	0.0066	0	0.15245	0	0.03892	0	0.03457	0	0	0	0	0	0	0	0	0
SGB31611	0	0.0698	0	0.03027	0.03036	0	0	0	0	0	0	0	0	0	0	0.01534	0	0	0	0.0928	0	0.00053	0	0.00031	0	0.00684	0	0.00538	0	0	0	0	0	0	0.0955	0.09524	0.07118	0	0	0	0.00496	0	0	0	0	0	0	0	0	0	0	0	0	0.0387	0	0	0	0.01797	0	0	0	0.0149	0	0.02799	0	0	0	0	0	0	0	0	0	0.00011	0.00051
SGB34172	0	0.0688	0	0	0	0	0	0.03106	0	0.08963	0	0.06488	0	0.14709	0	0	0	0	0	0	0	0	0	0	0	0	0	0.00258	0	0	0	0	0	0	0	0	0	0	0.00892	0	0.01046	0	0	0	0	0	0	0	0	0	0	0	0	0	0	0	0	0	0	0	0	0.006	0	0	0	0	0	0	0	0	0	0	0	0	0
SGB34939	0	0.06372	0	0.17751	0	0	0	0.0959	0	0.0011	0	0	0	0.02927	0	0	0	0.00107	0	0.0887	0	0	0	0.01445	0	0.01245	0	0.00725	0.0675	0.05178	0.06628	0	0	0	0.03168	0.03948	0.03646	0	0	0	0.0032	0	0	0	0	0	0	0	0	0	0	0	0	0.00898	0	0	0	0.20194	0	0.15732	0	0.03185	0	0.10784	0	0.05825	0	0.01842	0	0	0	0	0.0392	0.05223	0.03681
SGB16884	0	0.05495	0	0	0	0	0	0	0	0	0	0	0	0.00303	0	0.01238	0	0	0	0.0039	0	0.01356	0	0	0	0.02646	0	0	0	0	0	0	0	0	0	0	0	0	0	0	0.00271	0	0	0	0	0	0	0	0	0	0	0	0	0	0	0	0	0	0	0	0	0	0	0	0	0	0	0	0	0	0	0	0	0	0
SGB16862	0	0.05393	0	0.00541	0.00253	0.01288	0	0	0	0	0	0.02856	0	0.1328	0	0.07513	0	0.11498	0	0.07784	0	0.08717	0	0.07065	0	0.01218	0	0.00435	0.0004	0	0	0	0	0	0.09554	0.08535	0.10292	0	0.32585	0	0.01593	0	0	0	0	0	0	0	0	0	0.00028	0	0	0.00417	0	0.01325	0	0.13987	0	0.38866	0	0.1558	0	1.24524	0	0	0	0	0.00169	0	0	0	0.03578	0.03892	0.05421
SGB34113	0	0.05139	0	0.13278	0	0	0	0.01828	0	0.04648	0	0	0	0.02786	0	0.00435	0	0	0	0.04425	0	0	0	0	0	0.00077	0	0.0275	0	0	0	0	0	0	0.03448	0.06869	0.03612	0	0	0	9.00E-05	0	0	0	0	0	0	0	0	0	0	0	0	0.01701	0	0	0	0.35586	0	0.12268	0	0.02757	0	0.17245	0	0	0	0	0	0	0	0	0.02022	0.01427	0.00454
SGB16908	0	0.05113	0	0.03156	0	0	0	0.00584	0	0.00363	0	0.00039	0	0.00389	0	0.10839	0	0.00387	0	0.1318	0	0.00149	0	0.00832	0	0.04113	0	0.0702	0.0069	0.00655	0.01545	0	0	0	0.01894	0.02541	0.01774	0	0.02118	0	0.00694	0	0	0	0	0	0	0	0	0	0	0	0	0.00124	0	0	0	0.00977	0	0.03295	0	0.08522	0	0.03945	0	0.10673	0	0	0	0	0	0	0.00045	0	0
SGB10195	0	0.04799	0	0.00226	0	0	0	0.0031	0	0	0	0	0	0	0	0	0	0	0	0	0	0	0	0	0	0	0	0	0	0	0	0	0	0	0	0	0	0	0	0	0	0	0	0	0	0	0	0	0	0	0	0	0	0	0	0.00031	0	0.00104	0	0	0	0	0	0.00091	0	0.02429	0	0	0	0	0	0	0	0	0
SGB22694	0	0.04647	0	0.00107	0	0	0	0.02755	0	0.0056	0	0	0	0	0	0	0	0	0	0.00313	0	0	0	0	0	0	0	0	0	0	0	0	0	0	0	0	0	0	0	0	0.00057	0	0	0	0	0	0	0	0	0	0	0	0	0.00641	0	0	0	0	0	0	0	0.00402	0	0	0	0	0	0	0	0	0	0	0	0	0
SGB55576	0	0.04619	0	0	0	0	0	0.0001	0	0	0	0	0	0	0	0.0051	0	0	0	0.00125	0	0	0	0	0	0	0	0	0	0	0	0	0	0	0	0	0	0	0	0	0	0	0	0	0	0	0	0	0	0	0	0	0	0	0	0	0	0	0	0.00698	0	0.00016	0	0	0	0.00903	0	0	0	0	0	0	0	0	0
SGB16051	0	0.04516	0	0.00316	0	0	0	0	0	0	0	0.05465	0	0.01113	0	0.0037	0	0.09053	0	0.00126	0	0	0	0	0	0	0	0.01625	0	0	0	0	0	0	0.0706	0.0298	0.03985	0	0.03952	0	0.01279	0	0	0	0	0	0	0.00851	0.01136	0.0116	0	0	0	0.00265	0	0.69156	0	0.04094	0	0.46547	0	0.01182	0	0.59168	0	0	0	0	0	0	0	0	0.01122	0.02841	0.02435
SGB855	0	0.04277	0	0	0	0	0	0.00176	0	0	0	0	0	0.06948	0	0.00368	0	0	0	0.00254	0	0	0	0	0	0	0	0.00157	0	0	0	0	0	0	0	0	0	0	0	0	0.02427	0	0	0	0	0	0	0	0	0	0	0	0	0.06579	0	0	0	0	0	0	0	0.00388	0	0	0	0	0	0	0	0	0	0	0	0	0
SGB16081	0	0.04259	0	0.01406	0.00033	0	0	0.01004	0	0.03283	0	0.00175	0	0.001	0	0.00096	0	0.00028	0	0.00055	0	0	0	0	0	0	0	0.00035	0	0	0	0	0	0	0.00188	0.00042	0.00083	0	0	0	0.00052	0	0	0	0	0	0	0	0	0	0	0	0	0.0015	0	0	0	0.19258	0	0.03859	0	0.05778	0	0.01652	0	0	0	0	0	0	0	0	0	0	0
SGB34736	0	0.04115	0	0.00212	0.01135	0	0	0.01131	0	0.01515	0	0.00606	0	0.00457	0	0.00117	0	0.00043	0	0.00363	0	0.00244	0	0.02113	0	0.00496	0	0.00556	0	0	0	0	0	0	0.00034	0.00106	0.00035	0	0.00331	0	0.00413	0	0	0	0	0	0	0	0	0	0	0	0	0.01736	0	0	0	0.00134	0	0	0	0.00207	0	0.00148	0	0	0	0	0	0	0	0	0	0	0
SGB12864	0	0.04093	0	0.00123	0	0	0	0	0	0	0	0	0	0	0	0	0	0	0	0	0	0	0	0	0	0	0	0	0	0	0	0	0	0	0.04357	0.00238	0.00087	0	0	0	0.00397	0	0	0	0	0	0	0	0	0	0	0	0	0	0	0	0	0	0	0	0	0	0	0	0	0	0	0	0	0	0	0	0	0	0
SGB34234	0	0.04022	0	0.01129	0	0	0	0.01787	0	0.0087	0	0.00011	0	0.00044	0	0.00079	0	0.01542	0	0.03392	0	0	0	0	0	0	0	0	0	0	0	0	0	0	0	0	0	0	0	0	0.00472	0	0	0	0	0	0	0	0	0	0	0	0	0.00019	0	0	0	0.00115	0	0	0	0.00494	0	0	0	0	0	0	0	0	0	0	0	0	0
SGB16666	0	0.03875	0	0.02192	0	0	0	0	0	0.00344	0	0.42541	0	0.06845	0	0.08944	0	0.54224	0	0.0002	0	0.00106	0	0.00944	0	0	0	0.01186	0.01906	0.01885	0.01649	0	0	0	0	0	0	0	0.06332	0	0.02877	0	0	0	0	0	0	0.12421	0.15758	0.11122	0	0	0	0.00047	0	0.1751	0	0.02842	0	1.19214	0	0.06364	0	0.0554	0	0.17821	0	0	0	0	0	0	0	0	0
SGB33789	0	0.03655	0	0.04978	5.00E-05	0	0	0.06617	0	0.04008	0	0.00021	0	0.00634	0	0	0	0.00293	0	0.03351	0	0.01141	0	0.00154	0	0.00171	0	0.00559	0.00294	0.00222	0.00187	0	0	0	0.00421	0.02661	0.00388	0	0	0	0.00235	0.0023	0	0	0	0	0	0	0	0	0	0	0	0.00653	0	0	0	0.02093	0	0.00211	0	0.01093	0	0.00824	0	0.00278	0	0	0	0	0	0	0	0	0
SGB87666	0	0.0363	0	0.00551	0	0	0	4.00E-05	0	0.00162	0	0	0	0.00182	0	0	0	0	0	0	0	0	0	0	0	0	0	0	0	0	0	0	0	0	0	0	0	0	0.00427	0	0	0	0	0	0	0	0	0	0	0	0	0	0	0	0	0	0	0.00104	0	0	0	0.0019	0	0	0	0	0	0	0	0	0	0	0	0	0
SGB24428	0	0.03586	0	0.01338	0.01803	0	0	0.01119	0	0.03285	0	0	0	0.00294	0	0	0	0.00044	0	0.02642	0	0.00174	0	0	0	0	0	0	0.0062	0.00567	0.00219	0	0	0	0	0	0	0	0.001	0	0.00359	0.01063	0	0	0	0	0	0	0	0	0	0	0	0	0	0	0	0.00107	0	0.02232	0	0.01648	0	0.00154	0	0	0	0	0	0	0	0	0	0	0
SGB90455	0	0.03496	0	0.0271	0	0	0	0	0	0.00083	0	0.02765	0	0.02275	0	0	0	0.11275	0	0.00476	0	0	0	0	0	0	0	0.00404	0.01288	0.05989	0.02731	0	0	0	0.03174	0.02981	0.032	0	0	0	0.00929	0	0	0	0	0	0	0.00611	0.00692	0.01216	0	0	0	0.01252	0	0.02712	0	0.01099	0	0.90313	0	0.12275	0	0.13696	0	0.06431	0	0	0	0	0	0	0	0.00126	0.00183
SGB87517	0	0.03416	0	0.00219	0	0	0	0	0	0	0	0.00012	0	0.0547	0	0.00573	0	0.0507	0	0.07942	0	0.00158	0	0	0	0	0	0.00628	0.64619	0.7575	0.58734	0	0	0	0.01785	0.00571	0.00432	0	0.00166	0	0.01019	0	0	0	0	0	0	0	0	0	0.00134	0	0	0	0	0.03169	0	0.24321	0	0.53668	0	0.05386	0	0.24067	0	0.00548	0	0	0	0	0	0	0	0	0
SGB89781	0	0.03399	0	0.00292	0.38414	0	0	0.02888	0	0.01729	0	0.00018	0	0.00033	0	0.00359	0	0	0	0.00029	0	0	0	0.06093	0	0.01691	0	0.01106	0	0	0	0	0	0	0	0	0	0	0.00084	0	0.00012	0	0	0	0	0	0	0	0	0	0	0	0	0.02752	0	0	0	0.00269	0	0	0	0.01311	0	0.00216	0	0	0	0	0	0	0	0	0	0	0
SGB15911	0	0.03359	0	0	0	0	0	0	0	0	0	0	0	0	0	0	0	0	0	0.00777	0	0	0	0	0	0	0	0	0	0	0	0	0	0	0	0	0	0	0	0	0	0	0	0	0	0	0	0	0	0	0	0	0	0	0	0	0	0.00025	0	0.00233	0	0	0	0.0013	0	0	0	0	0	0	0	0	0	0	0
SGB31420	0	0.03352	0	0.09538	0	0	0	0.00017	0	0.0065	0	0.02553	0	0.02251	0	0.00719	0	0.86221	0	0.0125	0	0.00534	0	0.07178	0	0	0	0.00446	0.05964	0.06612	0.04582	0	0	0	0.08709	0.06993	0.08208	0	0.0092	0	0.00403	0	0	0	0	0	0	0.02393	0.03163	0.03073	0	0	0	0	0	0.0092	0	0.02132	0	0.58787	0	0.08474	0	0.37915	0	0.01334	0	0.00625	0	0	0	0	0.02422	0.05332	0.06184
SGB12387	0	0.03334	0	0	0	0	0	0	0	0	0	0.12326	0	0.0049	0	0	0	0.02618	0	0	0	0	0	0	0	0	0	0	0	0	0	0	0	0	0	0	0	0	0	0	0	0	0	0	0	0	0	0.01909	0.0174	0.01955	0	0	0	0	0	0.06394	0	0	0	0.47198	0	0.00719	0	0	0	0	0	0	0	0	0	0	0	0	0
SGB16672	0	0.03291	0	0.00024	0	0	0	0	0	0	0	0.00284	0	0	0	0	0	0.00046	0	0.00035	0	0	0	0	0	0	0	0	0	0	0	0	0	0	0	0	0	0	0.09246	0	0.00049	0	0	0	0	0	0	0	0	0	0	0	0	0	0	0	0	0	0	0.00244	0	0	0	0	0	0	0	0	0	0	0	0	0	0	0
SGB12530	0	0.03176	0	0	0	0	0	0	0	0	0	0.30821	0	0.00021	0	0	0	0	0	0	0	0	0	0	0	0	0	0	0	0	0	0	0	0	0	0	0	0	0.02324	0	0	0	0	0	0	0	0	0.01494	0.01564	0.01516	0	0	0	0	0	0.03188	0	0	0	0	0	0	0	0	0	0	0	0	0	0	0	0	0	0	0
SGB16733	0	0.03143	0	0.00248	0.00786	0	0	0.00738	0	0.00982	0	0	0	0.00162	0	0	0	0.00025	0	0.00889	0	0	0	0	0	0	0	0	0	0	0	0	0	0	0.00214	0.0058	0.00097	0	0	0	0	0	0	0	0	0	0	0	0	0	0	0	0	0.00548	0	0	0	0.00142	0	0	0	0.00382	0	0.00528	0	0	0	0	0	0	0	0	0	0	0
SGB10147	0	0.03132	0	0.00925	0	0	0	0	0	0.0018	0	0	0	0.03352	0	0.00561	0	0.00051	0	0.05199	0	0.01055	0	0.0165	0	0.0083	0	0.00394	0.21295	0.2561	0.25842	0	0	0	0	0.00097	0	0	0	0	0.00182	0	0	0	0	0	0	0	0	0	0	0	0	0	0	0.05267	0	0.05499	0	0.15059	0	0.0922	0	0.1291	0	0.08765	0	0.1716	0.01462	0	0	0	0.0028	0.01645	0.0048
SGB86900	0	0.03081	0	0.00194	0.00115	0	0	0.02703	0	0.04571	0	0.00122	0	0.00186	0	0.01163	0	0	0	0.00134	0	0.01072	0	0	0	0.00154	0	0	0	0	0	0	0	0	0	0	0	0	0.0056	0	0	0	0	0	0	0	0	0	0	0	0	0	0	0	0	0	0	0.04951	0	0	0	0.00657	0	0.00079	0	0	0	0	0	0	0	0	0	0	0
SGB11426	0	0.03067	0	0.02921	0.04641	0	0	0.05792	0	0.08216	0	0.01905	0	0.00107	0	0	0	0.00208	0	0	0	0	0	0	0	0	0	0.04074	0	0	0	0	0	0	0	0	0	0	0.00478	0	0.26036	0	0	0	0	0	0	0.01172	0.01478	0.01795	0	0	0	0.03234	0	0	0	0.01011	0	0.26566	0	0.07007	0	0.00247	0	0.0223	0	0	0	0	0	0	0	0	0
SGB38368_group	0	0.03036	0	0	0	0	0	0	0	0	0	0	0	0.00105	0	0	0	0	0	0.00261	0	0	0	0	0	0	0	0	0	0	0.00153	0	0	0	0	0	0	0	0	0	0	0	0	0	0	0	0	0	0	0	0	0	0	0	0	0	0	0.00021	0	0.00042	0	0	0	0.00044	0	0	0	0	0	0	0	0	0.00034	0.01121	0
SGB88019	0	0.02967	0	0.0014	0.20276	0	0	0.03055	0	0	0	0	0	0	0	0	0	0	0	0	0	0	0	0	0	0	0	0.00399	0	0	0	0	0	0	0.00263	0.00427	0	0	0	0	0.0055	0	0	0	0	0	0	0	0	0	0	0	0	0.00658	0	0	0	0.02002	0	0.01334	0	0.01058	0	0.01905	0	0.01484	0	0	0	0	0	0	0	0	0
SGB87618	0	0.02895	0	0	0.01407	0	0	0.04789	0	0.30775	0	0.001	0	0.00012	0	0	0	0	0	0	0	0	0	0	0	0	0	0	0	0	0	0	0	0	0	0	0	0	0	0	0.00029	0	0	0	0	0	0	0	0	0	0	0	0	0.00161	0	0	0	0.0024	0	0	0	0.01916	0	0	0	0	0	0	0	0	0	0	0	0	0
SGB11248	0	0.02866	0	0.01136	0.04155	0	0	0.01692	0	0.03247	0	0.00742	0	0.01324	0	0.0202	0	0.0095	0	0.00216	0	0.00421	0	0.00249	0	0	0	0.0097	0.00038	0.0012	0.00047	0	0	0	0.00258	0.00334	0.00267	0	0.00969	0	0.03615	0	0	0	0	0	0	0.01401	0.01492	0.02232	0	0	0	0.01706	0	0	0	0.01627	0	0.05328	0	0.03189	0	0.00535	0	0.04675	0	0	0	0	0	0	0	0	0
SGB87532	0	0.02808	0	0.00906	0	0	0	0.00133	0	0	0	0	0	0.01418	0	0.00273	0	0.00308	0	0.04106	0	0.00368	0	0.00189	0	0	0	0	0.00391	0.00196	0.00271	0	0	0	0	0	0	0	0.00242	0	0	0	0	0	0	0	0	0	0	0	0	0	0	0	0	0	0	0.00201	0	0.00203	0	0.00316	0	0.00308	0	0	0	0	0	0	0	0	0	0	0
SGB88765	0	0.02795	0	0.01333	0	0	0	0	0	0	0	0.00138	0	0	0	0	0	0	0	0.00127	0	0.00682	0	0	0	0	0	0.01862	0	0	0	0	0	0	0.2176	0.18016	0.19443	0	0.62676	0	0.13005	0	0	0	0	0	0	0.01761	0.01434	0.01548	0	0	0	0.00607	0	0	0	0.01556	0	0.01634	0	0	0	0.04843	0	0	0	0	0	0	0	0	0	0	0
SGB32229	0	0.02788	0	0.04564	0.00545	0.00076	0	0.00044	0	0.00044	0	0.01942	0	0.01043	0	0.00183	0	0.00051	0	0.04594	0	0.11657	0	0	0	0	0	0	0.22268	0.24238	0.86297	0	0	0	0	0	0	0	0.08137	0	0.03172	0	0	0	0	0	0	0.13293	0.12871	0.1283	0.0094	0	0	0.00055	0	0.00375	0	0.00086	0	0.00477	0	0	0	0.00194	0	0	0	0	0	0	0	0	0	0	0
SGB16076	0	0.0272	0	0.01585	0	0	0	0	0	0	0	0	0	0.06564	0	0.02141	0	0.09961	0	0.43577	0	0.00448	0	0	0	0	0	0	0.05951	0.05231	0.03802	0	0	0	0	0	0	0	0.02134	0	0	0	0	0	0	0	0	0	0	0	0	0	0	0	0	0	0	0.02571	0	0.27157	0	0.00889	0	0.02132	0	0	0	0	0	0	0	0	0	0	0
SGB16907	0	0.02627	0	0.02973	0	0	0	0.109	0	0.01768	0	0.00067	0	0.00333	0	0.00288	0	0	0	0.09337	0	0.00078	0	0.00191	0	0.00281	0	0.01006	0.01162	0.01496	0.01562	0	0	0	0.00806	0.01327	0.01057	0	0	0	0.00377	0	0	0	0	0	0	0	0	0	0	0	0	0	0	0.00015	0	0.03856	0	0.06121	0	0.00688	0	0.00924	0	0.01282	0	0	0	0	0	0	0.00038	0	0
SGB32557	0	0.02573	0	0.00655	0	0	0	0.05426	0	0.0292	0	0.00099	0	0.0002	0	0.00118	0	0.00039	0	0.00084	0	0	0	0	0	0	0	0.00267	0	0	0	0	0	0	0	0	0	0	0	0	0.00773	0	0	0	0	0	0	0	0.00027	0.00121	0	0	0	0	0	0	0	0.01258	0	0.04209	0	0.05055	0	0.00289	0	0.00291	0	0	0	0	0	0	0	0	0
SGB11273	0	0.02545	0	0.06767	0.06876	0	0	0.00215	0	0.01366	0	0.00308	0	0.00881	0	0.01449	0	0	0	0.03922	0	0.09608	0	0.00101	0	0.01813	0	0.00602	0	0.00087	0.00182	0	0	0	0.01373	0.01393	0.01458	0	0.0824	0	0.15339	0	0	0	0	0	0	0.01935	0.02238	0.026	0	0	0	0.00487	0	0.00019	0	0	0	0.00698	0	0.00126	0	0.05448	0	0	0	0	0	0	0	0	0.0006	0	0
SGB11729_group	0	0.02545	0	0	0	0.018	0	0	0	0	0	0	0	0	0	0	0	0.00146	0	0	0	0	0	0	0	0	0	0	0.12672	0.24586	0.1223	0	0	0	0	0	0	0	0.00192	0	0	0	0	0	0	0	0	0	0	0	0.00108	0	0	0	0	0	0.00035	0	0	0.00312	0	0	0	0.03562	0	0	0	0	0	0	0	0	0	0	0
SGB13249	0	0.02493	0	0	0	0	0	0.01069	0	0	0	0	0	0.00103	0	0	0	0.0009	0	0.00247	0	0	0	0	0	0	0	0	0	0	0	0	0	0	0	0	0	0	0	0	0.00039	0	0	0	0	0	0	0	0	0	0	0	0	0	0	0	0	0	0	0	0	0	0	0	0	0	0	0	0	0	0	0	0	0	0
SGB7678	0	0.02445	0	0.07114	0.00026	0	0	0.03117	0	0.00659	0	0.00215	0	0.01114	0	0.00378	0	0.0139	0	0.01704	0	0.00251	0	0.01312	0	0.21387	0	0.0072	0.15134	0.19008	0.18312	0	0	0	0.00654	0.00639	0.00382	0	0.00309	0	0.00275	0	0	0	0	0	0	0	0	0	0	0	0	0.03518	0	0	0	0	0	0.00154	0	0.00503	0	0	0	0.01334	0	0.00572	0.00033	0	0	0	0.01869	0.02269	0.0246
SGB90042	0	0.024	0	0.02822	0	0	0	0.00323	0	0	0	0.02037	0	0	0	0	0	0	0	0	0	0	0	0	0	0	0	0	0	0	0	0	0	0	0	0	0	0	0.0025	0	0.00677	0	0	0	0	0	0	0.0674	0.08359	0.0677	0	0	0	0.12742	0	0	0	0.00466	0	0	0	0.12656	0	0.00169	0	0	0	0	0	0	0	0	0	0	0
SGB11186	0	0.02361	0	0	0.02335	0	0	0.00294	0	0.004	0	0	0	0.00111	0	0.00169	0	0	0	0	0	0	0	0	0	0	0	0	0	0	0	0	0	0	0	0	0	0	0	0	0.00123	0	0	0	0	0	0	0	0	0	0	0	0	0.00165	0	0	0	0	0	0	0	0	0	0	0	0	0	0	0	0	0	0	0	0	0
SGB87683	0	0.02305	0	0.14982	0.00205	0	0	0.00443	0	0.00362	0	0.0037	0	0.00507	0	0.00026	0	0.00737	0	0.08038	0	0.02503	0	0	0	0	0	0	0.44637	0.40786	0.23384	0	0	0	0.01326	0.01965	0.02116	0	0.05097	0	0.00665	0	0	0	0	0	0	0	0	0	0.00016	0	0	0.00408	0	0.00024	0	0.01823	0	0.03878	0	0.00526	0	0.05139	0	0.01037	0	0	0	0	0	0	0	0	0
SGB34104	0	0.02254	0	0	0	0	0	0	0	0.00093	0	0.09849	0	0.06613	0	0	0	0.02124	0	0	0	0	0	0.00091	0	0	0	0	0	0	0	0	0	0	0	0	0	0	0.06284	0	0.00066	0	0	0	0	0	0	0.10092	0.10649	0.09367	0	0	0	0	0	0	0	0	0	0.0021	0	0	0	0	0	0	0	0	0	0	0	0	0	0	0
SGB84680	0	0.02235	0	0	0	0	0	0	0	0	0	0	0	0	0	0	0	0	0	0	0	0	0	0	0	0	0	0	0	0	0	0	0	0	0	0	0	0	0	0	0	0	0	0	0	0	0	0	0	0	0	0	0	0	0	0	0	0	0	0	0	0.04396	0	0	0	0	0	0	0	0	0	0	0	0	0
SGB15834	0	0.02215	0	0.01381	0	0	0	0	0	0	0	0.00212	0	0.0218	0	0	0	0.2614	0	0	0	0	0	0	0	0.00043	0	0	0	0	0	0	0	0	0	0	0	0	0.00019	0	0.00274	0	0	0	0	0	0	0	0	0	0	0	0	0	0	0	0	0.00041	0	0	0	0	0	0	0	0	0	0	0	0	0	0	0	0	0
SGB90111	0	0.02185	0	0.0028	0.00035	0	0	0.02006	0	0.00982	0	0	0	0	0	0	0	0	0	0	0	0	0	0	0	0	0	0	0	0	0	0	0	0	0	0	0	0	0	0	0	0	0	0	0	0	0	0	0	0	0	0	0	0	0	0	0	0.00856	0	0	0	0.0089	0	0	0	0	0	0	0	0	0	0	0	0	0
SGB3386	0	0.0217	0	0.01141	0	0	0	0	0	0	0	0	0	0	0	0	0	0	0	0	0	0	0	0	0	0	0	0.00056	0	0	0	0	0	0	0.00205	0.00093	0.00328	0	0	0	0.00228	0	0	0	0	0	0	0	0	0	0	0	0	0.00407	0	0	0	0.01178	0	0.03294	0	0.00799	0	0.00443	0	0	0	0	0	0	0	0	0	0	0
SGB11080	0	0.02162	0	0.04234	0	0	0	0.06092	0	0.028	0	0	0	0.00097	0	0	0	0	0	0	0	0	0	0	0	0	0	0	0	0	0	0	0	0	0	0	0	0	0	0	0.0026	0	0	0	0	0	0	0	0	0	0	0	0	0	0	0	0	0.0157	0	0.01158	0	0.0032	0	0.00123	0	0.00076	0	0	0	0	0	0	0.00414	0.0268	0.01592
SGB16035	0	0.02161	0	0.02157	0.0118	0	0	0.01009	0	0.00028	0	0	0	0.00353	0	0.00095	0	0	0	0.00137	0	0.00129	0	0.00123	0	0.00065	0	0.00154	0	0	0	0	0	0	0	0.00297	0	0	0.00142	0	0	0	0	0	0	0	0	0	0	0	0	0	0	0.02117	0	0	0	0.00507	0	0	0	0	0	0.00139	0	0	0	0	0	0	0	0	0	0	0
SGB55569	0	0.02152	0	0.01178	0	0	0	0	0	0	0	0.0003	0	0.02674	0	0.02372	0	0.00011	0	0.09875	0	0.0208	0	0	0	0.00437	0	0	0.01513	0.01364	0.00169	0	0	0	0	0	0	0	0.00153	0	0.00252	0	0	0	0	0	0	0	0	0	0	0	0	0	0	0	0	0.01341	0	0.0003	0	0.00858	0	0.00665	0	0	0	0.00578	0	0	0	0	0.00041	0.00483	0.00356
SGB10187	0	0.02118	0	0.00918	0	0	0	0.01991	0	0.03259	0	0	0	0	0	0	0	0	0	0	0	0	0	0	0	0	0	0	0	0	0	0	0	0	0	0	0	0	0	0	0	0	0	0	0	0	0	0	0	0	0	0	0	0	0	0	0	0	0	0	0	0	0	0.0018	0	0	0	0	0	0	0	0	0	0	0
SGB10707	0	0.02068	0	0.02691	0	0	0	0.00636	0	0	0	0.03676	0	0.00297	0	0	0	0	0	0	0	0	0	0	0	0	0	0.01778	0	0.01173	0	0	0	0	0.04646	0.0315	0.04232	0	0.01544	0	0.1366	0	0	0	0	0	0	0.02996	0.05819	0.05658	0	0	0	0.03372	0	0.3448	0	0.0066	0	0.43341	0	0.00414	0	0.05613	0	0	0	0	0	0	0	0	0	0	0
SGB16047	0	0.02056	0	0.03776	0	0	0	0.00062	0	0.0059	0	0	0	0.00144	0	0	0	0	0	0.00156	0	0	0	0	0	0	0	0.01026	0	0	0	0	0	0	0.04273	0.01525	0.00983	0	0.01098	0	0.17601	0.00023	0.00588	0.0102	0	0	0	0	0	0.00053	0	0	0	0.00377	0	0.00768	0	0.07128	0	0.08059	0	0.00315	0	0.03572	0	0	0	0	0	0	0	0	0.00051	0.00056	0.00294
SGB34148	0	0.02006	0	0	0	0	0	0.00809	0	0.00866	0	0.00012	0	0.00166	0	0.00415	0	0	0	0.0057	0	0	0	0	0	0	0	0.00579	0	0	0	0	0	0	0	0	0	0	0	0	0.00889	0	0	0	0	0	0	0	0	0	0	0	0	0.00501	0	0	0	0	0	0	0	0.0123	0	0	0	0.00508	0	0	0	0	0	0	0	0	0
SGB87531	0	0.01987	0	0.00427	0	0	0	0	0	0	0	0	0	0.00854	0	0	0	0.0026	0	0.01793	0	0	0	0.00869	0	0	0	0	0.00151	0.00333	0.00278	0	0	0	0	0	0	0	0	0	0	0	0	0	0	0	0	0	0	0	0	0	0	0	0	0	0	0	0	0	0	0.00569	0	0.00448	0	0	0	0	0	0	0	0	0	0	0
SGB15824	0	0.01948	0	0.01462	3.85671	0	0	0.003	0	0.00387	0	0.01846	0	0.0721	0	0.02189	0	0	0	0.01529	0	0.07877	0	0	0	0	0	0.00303	0.00714	0.03428	0.00999	0	0	0	0	8.00E-05	0.00025	0	0.19433	0	0.01953	0	0	0	0	0	0	0	0	0	0	0	0	0.00401	0	0	0	0.07025	0	0.01973	0	0.0052	0	0.28281	0	0	0	0	0	0	0	0	0.01701	0.0079	0.00511
SGB12692	0	0.01918	0	0.0428	0	0	0	0	0	0.0002	0	0	0	0	0	0	0	0	0	0	0	0	0	0	0	0	0	0.0001	0	0	0	0	0	0	0	0	0	0	0	0	0.01455	0	0	0	0	0	0	0	0	0	0	0	0	0.00223	0	0	0	0.00653	0	0.00029	0	0	0	0	0	0	0	0	0	0	0	0	0	0	0
SGB13427_group	0	0.01911	0	0.60169	0.11048	0	0	0.18425	0	2.48281	0	0.28184	0	0	0	1.38299	0	0.07232	0	0.00693	0	0.00481	0	0	0	0	0	0.15206	0	0	0	0	0	0	0.00463	0.02437	0.00039	0	0.00421	0	3.53756	0	0	0	0	0	0	0	0	0	0	0	0	0.03193	0	0	0	0.2197	0	0.43709	0	0.48319	0	0.00505	0	0.11701	0	0	0	0	0	0	0	0	0
SGB16851	0	0.01869	0	0	0	0	0	0.00592	0	0.00373	0	0.00013	0	0	0	0	0	0	0	0	0	0	0	0	0	0	0	0	0	0	0	0	0	0	0	0	0	0	0	0	0	0	0	0	0	0	0	0	0	0	0	0	0	0	0	0	0	0	0	0	0	0	0	0	0	0	0	0	0	0	0	0	0	0	0
SGB12868	0	0.01866	0	0.00301	0	0	0	0	0	0	0	0	0	0	0	0	0	0	0	0	0	0	0	0	0	0	0	0	0	0	0	0	0	0	0.00062	0	0	0	0	0	0.01647	0	0	0	0	0	0	0	0	0.00197	0	0	0	0	0	0	0	0	0	0	0	0	0	0	0	0	0	0	0	0	0	0	0	0	0
SGB16729	0	0.01862	0	0	0.07669	0	0	0.01003	0	0.00946	0	0.00729	0	0	0	0	0	0	0	0	0	0	0	0	0	0	0	0	0	0	0	0	0	0	0	0	0	0	0	0	0	0	0	0	0	0	0	0	0	0	0	0	0	0	0	0	0	0	0	0	0	0.00269	0	0	0	0	0	0	0	0	0	0	0	0	0
SGB87533	0	0.0184	0	0.00201	0	0	0	0	0	0	0	0	0	0.0094	0	0.00533	0	0.00106	0	0.02397	0	0.00112	0	0.00066	0	0	0	0	0	0	0	0	0	0	0	0	0	0	0.00025	0	0	0	0	0	0	0	0	0	0	0	0	0	0	0	0	0	0	0.00247	0	0	0	0.00278	0	0.00191	0	0	0	0	0	0	0	0	0	0	0
SGB11097	0	0.01822	0	0.02761	0	0	0	0.08585	0	0.03275	0	0	0	0	0	0	0	0	0	0	0	0	0	0	0	0	0	0	0	0	0	0	0	0	0.0155	0.01297	0.01435	0	0	0	0.00282	0	0	0	0	0	0	0	0	0	0	0	0	0.00035	0	0	0	0.02471	0	0.0116	0	0.00549	0	0.00159	0	0	0	0	0	0	0	0	0.00038	0.00708	0.00194
SGB10973	0	0.01759	0	0.13897	0	0	0	0.04708	0	0.01843	0	0.0001	0	0.00667	0	0	0	0	0	0.02674	0	0	0	0	0	0	0	0.00152	0.004	0.00294	0.00634	0	0	0	0.00748	0.0097	0.00628	0	0	0	0.00532	0.01119	0.00265	0.00867	0	0	0	0	0	0	0	0	0	0.00426	0	0	0	0.0945	0	0.05047	0	0.01477	0	0.01515	0	0.00251	0	0	0	0	0	0	0.00064	0.0031	0.00209
SGB31132	0	0.017	0	0	0	0	0	0	0	0	0	0	0	0	0	0	0	0	0	0	0	0	0	0	0	0	0	0	0	0	0	0	0	0	0	0	0	0	0	0	0	0	0	0	0	0	0	0	0	0	0	0	0	0	0	0	0	0	0	0	0	0	0	0.00946	0	0	0	0	0	0	0	0	0	0.00085	0
SGB33810	0	0.01685	0	0.03067	0.00825	0	0	0.0064	0	0	0	0.03844	0	0.05773	0	0	0	0.00186	0	0.00093	0	0	0	0	0	0	0	0	0.00827	0.00426	0.01823	0	0	0	0.00291	0.00328	0.00208	0	0.00224	0	0.00532	0	0	0	0	0	0	0.00126	0.00441	0.00455	0.00093	0	0	0.01539	0	0.00025	0	0.00131	0	0.01153	0	0.0036	0	0.00068	0	0.16972	0	0	0	0	0	0	0	0	0
SGB23872	0	0.01663	0	0	0	0	0	0	0	0	0	0	0	0.00028	0	0	0	0.00144	0	0.09951	0	0	0	0.08477	0	0	0	0	0	0	0	0	0	0	0	0	0	0	0.00112	0	0	0.00389	0	0	0	0	0	0	0	0	0	0	0	0	0	0	0	0	0	0	0	0	0	0.00037	0	0	0	0	0	0	0	0	0	0.0006	0.0032
SGB87826	0	0.01649	0	0	0	0	0	0.00647	0	0.00102	0	0	0	0	0	0.01941	0	0	0	0	0	0	0	0	0	0	0	0	0	0	0	0	0	0	0	0	0	0	0	0	3.00E-05	0	0	0	0	0	0	0	0	0	0	0	0	0.0011	0	0	0	0	0	0	0	0	0	0	0	0	0	0	0	0	0	0	0	0	0
SGB12473	0	0.01625	0	0.02695	0.00198	0	0	0.00626	0	0	0	0	0	0.00119	0	0	0	0	0	0.00036	0	0	0	0	0	0	0	0.00365	0	0	0.01359	0	0	0	0	0	0	0	0.00671	0	0.00085	0	0	0	0	0	0	0	0.00962	0	0	0	0	0	0	0	0	0.0319	0	0.05214	0	0.00665	0	0.01937	0	0	0	0	0	0	0	0	0	0	0
SGB27729	0	0.01616	0	0.01992	0	0	0	0.00428	0	0.00211	0	0	0	0	0	0	0	0	0	0	0	0	0	0	0	0	0	0.00104	0	0	0	0	0	0	0.00014	0.00081	0	0	0.00046	0	0.00592	0	0	0	0	0	0	0	0	0	0	0	0	0.00046	0	0	0	0.02563	0	0.05427	0	0.00744	0	0.01314	0	0	0	0	0	0	0	0	0.00057	0	0
SGB33292	0	0.01569	0	0	0	0	0	0	0	0	0	0.00039	0	0	0	0	0	0	0	0	0	0	0	0	0	0	0	0	0	0	0	0	0	0	0	0	0	0	0.00105	0	0	0	0	0	0	0	0	0	0	0	0	0	0	0	0	0.02044	0	0	0	0	0	0	0	0	0	0	0	0	0	0	0	0	0	0.00606	0.0006
SGB87585	0	0.01536	0	0.06447	0.00165	0	0	0.00707	0	0.00291	0	0.00163	0	0.00527	0	0	0	0	0	0.03898	0	0	0	0.00763	0	0	0	0.01011	0	0.00173	0	0	0	0	0.04784	0.04617	0.04711	0	0.00891	0	0.00561	0	0	0	0	0	0	0.00017	0.0023	0.00072	0	0	0	0.01838	0	0	0	0.25393	0	0.00998	0	0.02978	0	0.09823	0	0.01577	0	0	0	0	0	0	0	0	0
SGB87911	0	0.01504	0	0.03779	0	0	0	0.0015	0	0.00295	0	0.01059	0	0.04053	0	0	0	0	0	0.00229	0	0.05301	0	0	0	0	0	0.00065	0.0516	0.03537	0.12964	0	0	0	0.00525	0.00749	0.00479	0	0.04495	0	0.01293	0	0	0	0	0	0	0.05711	0.05831	0.06901	0.00015	0	0	0.00226	0	0.00124	0	0.00151	0	0.02425	0	0.00022	0	0.00166	0	0.04555	0	0	0	0	0	0	0	0	0
SGB10405	0	0.01477	0	0	0	0.04048	0	0	0	0	0	0.00198	0	0.00016	0	0	0	0.01382	0	0	0	0	0	0	0	0	0	0.05742	0.02267	0.05865	0.076	0	0	0	0.08122	0.02979	0.04608	0	0	0	0.13262	0.03492	0.1689	0.07665	0	0	0	0.01706	0.00973	0.01678	0	0	0	0	0	0.00677	0	0.03302	0	0.70297	0	0.02927	0	0.06877	0	0	0	0	0.00465	0	0	0	0	0	0
SGB34120	0	0.01429	0	0.01409	0.2246	0	0	0	0	0	0	0	0	0.0278	0	0.09379	0	0	0	0.1304	0	0.06044	0	0.08325	0	0.20731	0	0.06326	0	0	0	0	0	0	0.07562	0.08859	0.08322	0	0.02735	0	0.02538	0	0	0	0	0	0	0	0	0	0	0	0	0.00624	0	0	0	0.33269	0	0.02889	0	0.02648	0	0.09989	0	0.01105	0	0	0	0	0	0	0.00318	0.00098	0.00091
SGB38575	0	0.01421	0	0.00821	0	0	0	0	0	0	0	0	0	0.0065	0	0	0	0	0	0.07559	0	0.01452	0	0	0	0	0	0	0.1029	0.18773	0.11105	0	0	0	0	0	0	0	0.00195	0	0	0	0	0	0	0	0	0	0	0	0	0	0	0	0	0	0	0	0	0	0	0.00245	0	0.00266	0	0	0	0	0	0	0	0	0	0	0
SGB16900	0	0.01418	0	0.08585	0	0	0	0.15376	0	0.01009	0	0	0	0.00316	0	0	0	0	0	0.01736	0	0	0	0.00747	0	0	0	0	0	0	0	0	0	0	0	0	0	0	0	0	0	0	0	0	0	0	0	0	0	0	0	0	0	0	0	0	0	0.17541	0	0.06174	0	0.00959	0	0.01635	0	0.02824	0	0	0	0	0	0	0.0461	0.03791	0.02652
SGB8326	0	0.01391	0	0	0	0	0	0.00733	0	0.00392	0	0	0	0	0	0	0	0	0	0.00038	0	0	0	0	0	0	0	0	0	0	0	0	0	0	0	0	0	0	0	0	0	0	0	0	0	0	0	0	0	0	0	0	0	0	0	0	0	0	0	0.00062	0	0.0003	0	0	0	0.04601	0	0.00336	0.00613	0	0	0	0	0	0
SGB16794	0	0.01386	0	0.1094	0	0	0	0.15762	0	0.00456	0	0	0	0.01852	0	0	0	0	0	0.00983	0	0.00053	0	0	0	0	0	0.01694	0	0	0	0	0	0	0.01231	0.01322	0.00716	0	0.00777	0	0.13998	0.00039	0	0.0065	0	0	0	0	0	0	0	0	0	0.02725	0	0	0	0.07501	0	0.04416	0	0.01064	0	0.02359	0	0	0	0	0	0	0	0	0.03687	0.00812	0.00479
SGB38219	0	0.01347	0	0.00678	0	0	0	0.00648	0	0	0	0	0	0.01922	0	0	0	0	0	0.00459	0	0.00142	0	0	0	0	0	0	0.01564	0.00795	0.01534	0	0	0	0	0	0	0	0	0	0	0	0	0	0	0	0	0	0	0	0	0	0	0	0	0	0	0.00192	0	0.00124	0	0.00407	0	0.00106	0	0	0	0	0	0	0	0	0	0	0.00086
SGB16879	0	0.0134	0	0.01555	0	0	0	0	0	0.004	0	0.0016	0	0	0	0	0	0	0	0	0	0	0	0	0	0	0	0.00242	0	0	0	0	0	0	0.01347	0.01516	0.00504	0	0.00888	0	0.00234	0	0	0	0	0	0	0	0	0	0	0	0	0.00336	0	0	0	0.03942	0	0.0333	0	0.00167	0	0.02296	0	0	0	0	0	0	0	0	0	0	0
SGB89802	0	0.01331	0	0.00078	0.02067	0	0	0.04971	0	0.00833	0	0.00136	0	0.00394	0	0.00109	0	0	0	0.00017	0	0	0	0	0	0	0	0.01029	0	0	0	0	0	0	0	0	0	0	0.01463	0	0.00528	0	0	0	0	0	0	0.00214	0.00488	0.00592	0.00025	0	0	0.1181	0	0	0	0	0	0	0	0.00037	0	0	0	0	0	0	0	0	0	0	0	0	0
SGB15989	0	0.01308	0	0.0044	0.02804	0	0	0.00156	0	0	0	0.00237	0	0	0	0	0	0	0	0.00155	0	0	0	0	0	0	0	0	0	0	0	0	0	0	0	0	0	0	0.00623	0	0.0017	0	0	0	0	0	0	0	0	0	0	0	0	0	0	0.00085	0	0.00455	0	0.01558	0	0	0	0.02855	0	0	0	0	0	0	0	0	0	0	0
